247.5173217,247.2570628,246.9335543,246.905303,246.9311474,246.9463778,246.9734454,246.9943576,247.0396544,247.0759549,247.0816761,247.0886206,247.0995896,247.1369949,247.1814631,247.2552872,247.2656645,247.3246133,247.353851,247.3596512,247.3762232,247.4258207,247.4579388,247.4890704,247.5054845,247.4698548,247.1737295,246.9875316,246.959517,247.0002762,247.1020754,247.1102036,247.1097301,247.1263021,247.1289457,247.1388494,247.1421638,247.1422033,247.1604719,247.2306266,247.2950994,247.3278093,247.3452888,247.3705019,247.3642677,247.4155224,247.4223879,247.4460622,247.4429451,247.34884,246.9916746,246.9068813,246.947601,247.0151515,247.0719697,247.1248027,247.191209,247.1889599,247.1902225,247.1771622,247.2438447,247.2459359,247.2465278,247.2477904,247.2696496,247.3031881,247.3636758,247.4010811,247.4371449,247.4932528,247.4544271,247.1838305,246.943024,246.948035,247.0034328,247.0784801,247.1149779,247.1531329,247.1757813,247.1921954,247.1846985,247.1900647,247.2151594,247.2188684,247.2773043,247.2838147,247.3021622,247.3534564,247.3991872,247.4194681,247.5171244,247.5153488,247.4090909,246.9620423,246.7905619,246.8055161,246.8193261,246.9044744,246.9238873,246.9413273,246.9680003,246.9936869,247.0011048,246.9947917,246.9994081,247.0170849,247.0419823,247.1591304,247.1818576,247.1903409,247.2223406,247.2362689,247.2499211,247.2698864,247.2664931,247.2045849,246.7841304,246.5451389,246.5140467,246.5112058,246.6007734,246.6049164,246.619476,246.6521465,246.6916824,246.700797,246.7045849,246.7183554,246.7755287,246.8096196,246.886916,246.9466935,247.0084044,247.0323943,247.0688526,247.0764678,247.0666035,247.0771386,247.0899227,247.0862926,246.9288589,246.4905698,246.3988321,246.4504419,246.4750237,246.495857,246.5018545,246.5531487,246.5951705,246.5888179,246.6416903,246.6551057,246.6712831,246.6740057,246.7153961,246.7818024,246.8501815,246.9453914,246.9696181,246.9674085,246.9818892,247.0176373,247.0522017,247.0515309,247.0668008,247.0668008,246.9340278,246.5576468,246.4537563,246.4987768,246.5550426,246.5552004,246.5688131,246.6147412,246.6399937,246.6423217,246.6633917,246.6862374,246.7244318,246.7669271,246.9197838,246.9331203,246.9426689,246.9521386,246.9668955,247.0312105,247.1405066,247.1722301,247.1695865,247.1374684,246.8233112,246.5259628,246.4807449,246.5151515,246.541351,246.5769807,246.5977746,246.6327336,246.6372317,246.6454388,246.6270518,246.6412958,246.6711253,246.7005208,246.7710306,246.8523911,246.9125237,246.9244003,246.9302004,246.9478378,247.0300268,247.0323548,247.0366556,247.0001973,246.6057055,246.3553898,246.350655,246.3721985,246.4404198,246.4620818,246.4769176,246.4982639,246.5157039,246.519334,246.5331834,246.5505051,246.5867266,246.6086648,246.6430713,246.7492503,246.7672033,246.7883917,246.811553,246.8337674,246.846078,246.8628472,246.8733428,246.8700679,246.7118845,246.3020439,246.174637,246.1904198,246.2250631,246.2977036,246.3649779,246.4812579,246.497238,246.5140467,246.553267,246.5443892,246.5909091,246.6112689,246.6725063,246.7333886,246.7645202,246.7957307,246.8044508,246.8361348,246.8677794,246.8921244,246.9275568,246.9444444,246.9214804,246.7418718,246.3356613,246.3104877,246.3397648,246.3527068,246.3778409,246.4171402,246.6357718,246.6437027,246.6416114,246.6405066,246.649779,246.6492661,246.6560133,246.6775174,246.716935,246.7668876,246.8515625,246.8959122,246.9480745,246.9697364,246.9926215,246.9956597,247.0137705,246.9943971,246.8250473,246.4928977,246.4354482,246.458136,246.5296717,246.5660511,246.6255919,246.6852904,246.6843434,246.6945628,246.7143703,246.7405303,246.7913116,246.8160511,246.8177872,246.8532592,246.846078,246.8616241,246.8851799,246.8845092,246.8997396,246.9680003,246.9826783,246.9706045,246.6526989,246.4307528,246.4075126,246.4322128,246.4693024,246.5513731,246.5944602,246.7083728,246.7291667,246.7058081,246.7107797,246.7268782,246.7503157,246.7936395,246.8570076,246.8843908,246.8939789,246.9450758,247.0159012,247.0225694,247.035827,247.056029,247.066643,247.0404435,246.7084517,246.3652146,246.3686474,246.4150884,246.4791667,246.5095092,246.5642756,246.5757181,246.609375,246.6156092,246.6111111,246.5862137,246.6196733,246.6972459,246.7531171,246.7839331,246.8239426,246.8411853,246.885535,246.9130761,246.9075521,246.9376184,246.9457071,246.9906092,246.984375,246.710464,246.2811316,246.2945865,246.3219302,246.4037642,246.4818892,246.5458886,246.6358507,246.6406645,246.6433081,246.6399148,246.6405066,246.6430713,246.6482008,246.698035,246.7250631,246.7299558,246.7980587,246.8237453,246.8169586,246.8462753,246.8589015,246.8955177,246.9238479,246.8043718,246.3871528,246.3268229,246.3516414,246.4187184,246.5791114,246.5890941,246.6007734,246.5969066,246.6000237,246.5964331,246.5935527,246.5902778,246.6428346,246.7300742,246.779869,246.8449337,246.880524,246.9371449,246.9441682,246.9621212,246.9864662,247.0141256,247.0057213,246.7037169,246.3890073,246.3724747,246.4272017,246.4834675,246.5209122,246.5396938,246.573548,246.5837279,246.5808475,246.5833728,246.6179766,246.6302083,246.6402699,246.6582623,246.6910117,246.7127131,246.7590751,246.7932844,246.8173927,246.8366477,246.8418166,246.8893624,246.8852194,246.8362926,246.3638336,246.1889205,246.1747159,246.2381629,246.2566288,246.2906408,246.3517598,246.3872317,246.3929924,246.3755129,246.4101168,246.4360401,246.4583333,246.5369713,246.7097932,246.7209991,246.7880366,246.8009391,246.7999527,246.8132497,246.82122,246.8023201,246.8238242,246.8544034,246.8499448,246.6623658,246.2598643,246.1707702,246.202178,246.2997159,246.3526673,246.4520991,246.4831518,246.4642914,246.4651989,246.4607797,246.468316,246.5267914,246.556542,246.5939473,246.6623658,246.7241556,246.7426215,246.7880366,246.8148674,246.8063052,246.9064867,246.9095644,246.727904,246.2871291,246.2163037,246.233941,246.2788431,246.3481692,246.4029751,246.4677241,246.4891493,246.4885969,246.4851641,246.4899384,246.4951468,246.5164141,246.6034564,246.6127289,246.6581439,246.7175663,246.7328362,246.7507102,246.7590751,246.7989662,246.8566525,246.8505761,246.694405,246.2636916,246.038155,246.0632102,246.2158302,246.2364268,246.2429372,246.2663747,246.2987295,246.2989268,246.3089094,246.3111585,246.3159722,246.3495502,246.436553,246.5145991,246.5422191,246.5897648,246.6178583,246.6647333,246.677833,246.6982718,246.6992977,246.7236427,246.7243134,246.6777146,246.3618608,246.0430871,246.0689315,246.1100852,246.2061237,246.2432528,246.255011,246.3003078,246.3677399,246.3779198,246.3701468,246.3847854,246.3955177,246.3946891,246.414536,246.4378551,246.4647254,246.5139283,246.5559107,246.5973011,246.622672,246.6665483,246.6848958,246.6659564,246.4523359,246.1233428,246.1131234,246.1905382,246.287642,246.3054766,246.4330414,246.4559265,246.4453914,246.4434975,246.4426689,246.4597143,246.470131,246.4777857,246.5533854,246.5662484,246.581321,246.5842803,246.5906329,246.5992345,246.6110322,246.6320234,246.563881,246.1459912,245.9712753,246.0273832,246.0701547,246.1846985,246.2490136,246.3058712,246.3160511,246.308357,246.3085148,246.3125,246.3180634,246.3697917,246.3857718,246.4119318,246.4560054,246.5187421,246.5463621,246.5641177,246.6122948,246.6135574,246.7338621,246.7135417,246.3129735,246.0027225,245.9464568,245.9914378,246.0282513,246.0734691,246.4535985,246.4665404,246.4850458,246.4797585,246.4748658,246.4851641,246.4965672,246.520715,246.5892914,246.6505682,246.686119,246.7440814,246.7678741,246.795928,246.8072917,246.8252841,246.8501026,246.8421323,246.6299716,246.1692314,246.0914615,246.1336411,246.2328362,246.2363479,247.0332623,248.124053,248.1261443,248.1328125,248.1343513,248.1332071,248.1347854,248.1327336,248.1720723,248.182489,248.2548532,248.2814473,248.3143545,248.3105666,248.3568892,248.365846,248.3942945,248.3112768,247.932923,247.7932844,247.7870107,247.8405145,247.8831282,247.9772727,248.0018545,248.0686158,248.0605271,248.0419034,248.1027857,248.0928819,248.1025095,248.1336016,248.1475694,248.2275489,248.3216935,248.3661616,248.3597301,248.4075521,248.4427083,248.4279119,248.3268624,247.8933475,247.7980193,247.8030303,247.8611111,247.8948864,247.9339883,247.9975142,248.0348801,248.0515704,248.0478614,248.050071,248.0727588,248.1351405,248.2088857,248.227904,248.2626657,248.310685,248.3937816,248.4014362,248.4046323,248.4140625,248.428346,248.4159959,248.2907592,247.8546402,247.7629419,247.778054,247.8125395,247.8571654,247.9015941,247.9247948,247.9401831,247.9576231,247.9697759,247.9654751,247.9766414,248.0720092,248.2308239,248.2336253,248.2368608,248.288155,248.3066998,248.3302162,248.3564157,248.3680556,248.3845092,248.4217961,248.3261521,248.1230271,247.7934422,247.796441,247.7930871,247.8300189,247.8585464,247.9444444,248.0216225,248.0176768,248.0142835,248.0021701,248.0060764,248.0339331,248.0540167,248.1123737,248.2350852,248.2348879,248.264678,248.3048059,248.3375158,248.377328,248.3970565,248.3888494,248.3259154,248.0711016,247.822167,247.7983349,247.8783539,247.8978456,248.0093513,248.0242266,248.0203598,248.0102588,248.0097459,248.0115609,248.0148359,248.0144018,248.058791,248.1063763,248.1291035,248.2230508,248.2629419,248.316209,248.3321891,248.3510101,248.3694366,248.3780777,248.2956124,247.9309501,247.7698469,247.8177872,247.8248895,247.8700284,247.886048,247.8946496,247.9407749,247.9515073,247.9552557,247.9436948,248.0154277,248.0166903,248.0400095,248.0479403,248.0792693,248.1145044,248.2342961,248.2108191,248.2008759,248.2988479,248.3316367,248.3300979,248.3139994,248.0668403,247.6672191,247.7075836,247.7647569,247.8072128,247.8177478,247.83503,247.8416982,247.8541667,247.8641493,247.8660432,247.8627289,247.8660432,247.9231376,248.0117977,248.0633286,248.0699179,248.1558949,248.159446,248.1586569,248.1652857,248.1670218,248.1722301,248.0886206,247.6657986,247.5934343,247.6330492,247.6476484,247.6857244,247.7073469,247.7571417,247.7745423,247.7801452,247.7741477,247.7653883,247.7675979,247.8462753,247.9041982,247.9781408,248.0223327,248.0477431,248.0531092,248.1120581,248.131905,248.13372,248.1083097,247.8310054,247.5139678,247.5091935,247.5166903,247.5203993,247.530303,247.5568182,247.582268,247.6214489,247.6297743,247.6444918,247.6625631,247.6717566,247.7576941,247.837279,247.9152068,247.9827573,247.9917535,247.9928977,247.9922664,248.0010259,248.0114426,248.0372475,248.0177557,247.7374921,247.44622,247.4121686,247.4345407,247.4441288,247.4431424,247.484375,247.6279593,247.6440183,247.6292219,247.6325758,247.6363242,247.6416903,247.6733744,247.6970092,247.746804,247.8343592,247.8315972,247.810685,247.8394097,247.8705019,247.9144965,247.9455887,247.8992661,247.5824258,247.2644413,247.2919823,247.3328598,247.4081439,247.4473248,247.5305398,247.5638415,247.6085859,247.6050347,247.5817551,247.5837279,247.60247,247.7401752,247.7470407,247.7692945,247.7771465,247.7913905,247.8063052,247.8122633,247.8391335,247.8338463,247.7182371,247.5035117,247.3876263,247.4116556,247.4650016,247.5603693,247.5754419,247.6280382,247.6482402,247.6693497,247.6677715,247.6610243,247.6683239,247.7175268,247.7374132,247.7600221,247.7817629,247.7975063,247.8142361,247.8293876,247.8493924,247.8596117,247.8133286,247.3486032,247.2161853,247.2084517,247.2601405,247.28634,247.2852352,247.3238242,247.3463936,247.3686474,247.349708,247.3510496,247.3785906,247.3854956,247.4371843,247.5225694,247.5910275,247.6250789,247.6588936,247.6833965,247.6871843,247.7065183,247.7244318,247.7205256,247.5713778,247.1947601,247.1172664,247.1529751,247.2030461,247.2448706,247.2548138,247.2535906,247.2633365,247.2664931,247.3027146,247.3117109,247.3173927,247.3456439,247.3728299,247.4765625,247.534959,247.5823864,247.6268939,247.6420455,247.6895518,247.7082939,247.7137784,247.7429372,247.7344539,247.5153488,247.1730193,247.1643782,247.2048611,247.2566682,247.2955335,247.3863636,247.3858112,247.4202967,247.4623185,247.4934896,247.4883996,247.5014205,247.529869,247.5825442,247.622672,247.7819997,247.8050426,247.8095407,247.8333728,247.8913747,247.907631,247.8789852,247.6938526,247.3102115,247.2786853,247.3026357,247.3384628,247.3684501,247.4421954,247.484375,247.5193734,247.5176373,247.5166903,247.5164931,247.5209122,247.5583176,247.625947,247.6601563,247.6718355,247.7891414,247.792298,247.8025963,247.8133681,247.8326231,247.8278488,247.748619,247.3298611,247.1400331,247.1554214,247.1710464,247.2198548,247.2549716,247.2666114,247.2894965,247.3039773,247.3109612,247.3427241,247.3800505,247.4313052,247.5047348,247.5658933,247.6105193,247.6381392,247.659959,247.6923138,247.7047427,247.7622317,247.7810922,247.7604167,247.5521622,247.4332386,247.1901831,247.2073074,247.2437263,247.2915878,247.3377525,247.4389994,247.4274779,247.4330019,247.4372633,247.4645676,247.5038668,247.5550821,247.6500947,247.6904198,247.7270754,247.790917,247.7845249,247.8159722,247.8250473,247.8630051,247.7915483,247.6416114,247.3854167,247.2612453,247.3342408,247.424203,247.4323311,247.4801926,247.6295376,247.6235006,247.614386,247.6158065,247.6238952,247.6289852,247.6339173,247.6710464,247.6822128,247.7399779,247.8351878,247.8830492,247.8804056,247.8935448,247.9110638,247.8999369,247.7466067,247.320352,247.2442393,247.2470802,247.2814078,247.3178662,247.3295455,247.3951231,247.4041588,247.4069208,247.4188763,247.4364347,247.4399858,247.4671323,247.6505682,247.6497396,247.6605508,247.6624448,247.6689946,247.7143308,247.7245107,247.7494476,247.8112374,247.825363,247.807489,247.5523595,247.1448469,247.1025884,247.1084675,247.1712042,247.2136206,247.3116319,247.3184975,247.364465,247.3788273,247.3854956,247.3693576,247.389244,247.4333965,247.5360638,247.5834912,247.6211727,247.6532118,247.6621686,247.7612453,247.7605745,247.7676373,247.768821,247.7707544,247.6872238,247.2248264,247.2230508,247.2059265,247.2393466,247.3010969,247.3630051,247.3851405,247.3946496,247.4086174,247.4086174,247.4064473,247.4466146,247.4895833,247.5391414,247.5792693,247.6436632,247.6609059,247.7103456,247.7548532,247.7423848,247.7529593,247.6597222,247.4012784,247.0082071,246.9987768,247.020636,247.0590672,247.1370344,247.1909722,247.3156566,247.3366083,247.3309659,247.3357402,247.3422112,247.3568497,247.3834833,247.4549006,247.474708,247.583136,247.5986821,247.599708,247.6085859,247.6114268,247.6103614,247.6102036,247.5497159,247.0824653,246.9292535,246.9095249,247.0364583,247.0711411,247.097893,247.1449258,247.2092408,247.2225773,247.2172112,247.2111348,247.2172901,247.2193024,247.2260496,247.2423453,247.2778172,247.3757497,247.4405777,247.4608191,247.4902146,247.5177557,247.5560685,247.5782434,247.534446,247.2198548,246.8734217,246.8788273,246.8900331,246.9547427,247.0093908,247.0866477,247.1748737,247.1571575,247.1728614,247.1606297,247.1766888,247.1901042,247.2483033,247.4008444,247.4150884,247.4426294,247.453559,247.4712753,247.4706439,247.521149,247.5380366,247.5043008,247.316209,246.9685527,246.958215,246.9961332,247.0759549,247.1581439,247.2321654,247.2537879,247.2720565,247.2752131,247.2782907,247.2836569,247.323548,247.3633602,247.455887,247.4920297,247.5422585,247.5674716,247.5859375,247.6109533,247.644768,247.7586016,247.7562342,247.7273911,247.3990294,246.9353693,246.9465357,247.0159407,247.0805713,247.1249211,247.1895518,247.2786064,247.2708333,247.2751736,247.2633365,247.2686237,247.2827494,247.33503,247.4156802,247.5283696,247.5479403,247.5789931,247.5941051,247.6114662,247.6139126,247.6249211,247.650726,247.6932213,247.6238557,247.2252999,247.0038668,247.0469539,247.0477825,247.0647491,247.1024306,247.2600221,247.2629419,247.2898122,247.2785275,247.2715041,247.2937579,247.3114741,247.3701073,247.4369081,247.4627131,247.5840436,247.6098485,247.6416903,247.6414141,247.6678109,247.6734533,247.6791746,247.6474116,247.3811948,247.0902778,247.0365767,247.0828598,247.1611032,247.2382813,247.3397648,247.3697522,247.3885732,247.4010022,247.4045928,247.4063684,247.4320944,247.4565972,247.4780619,247.4976326,247.5154672,247.5283696,247.6311948,247.6855666,247.7220644,247.7226563,247.5477825,247.1377841,247.006392,247.0224511,247.0863321,247.1750316,247.2479088,247.3359375,247.3533775,247.3562184,247.3514047,247.3519571,247.3804056,247.4027778,247.4717487,247.4818497,247.6365215,247.6458728,247.6476878,247.6383759,247.6461095,247.6383759,247.6686395,247.6483586,247.5414694,247.0612374,246.9974353,247.0224511,247.035393,247.0548453,247.1210938,247.1913668,247.2630603,247.2779751,247.2593908,247.2756471,247.3085543,247.3411458,247.5043008,247.5172033,247.5656171,247.5981692,247.6209754,247.6350221,247.6644176,247.7121212,247.8020439,247.8310448,247.8059896,247.5423374,247.1509233,247.1772017,247.1908539,247.3042929,247.3615846,247.3995423,247.4182449,247.4244003,247.4294113,247.4367109,247.4364741,247.4488242,247.4791272,247.6107955,247.6562105,247.7459359,247.7807765,247.818892,247.8594539,247.8857718,247.8818261,247.8862453,247.8246528,247.4908854,247.2138573,247.2521307,247.4494555,247.4543876,247.4986979,247.559304,247.6083491,247.5938289,247.6011679,247.5973801,247.5915404,247.6272885,247.6738873,247.7348879,247.7909564,247.8188131,247.8595723,247.8780382,247.8965041,247.9525726,247.9683554,247.9624763,247.8986742,247.4914773,247.3468671,247.3875473,247.5607244,247.5847143,247.6510811,247.7049795,247.7290088,247.7256155,247.7330729,247.7300347,247.7417929,247.7456597,247.7788826,247.804727,247.9770754,247.9943971,248.0046165,248.0587121,248.0653015,248.0769807,248.1163194,248.1337989,248.145715,248.1083097,247.755524,247.2801452,247.2760417,247.4661064,247.6543561,247.721078,247.7349274,247.7915878,247.804727,247.7779356,247.7674795,247.7509864,247.7509864,247.8125395,247.9365136,247.947167,247.9484296,247.9546638,247.9484691,247.9522569,247.9751815,247.9788905,247.989899,247.990846,247.9346985,247.5226878,247.2030066,247.2822364,247.4754972,247.6242898,247.7319287,247.7929688,247.7566682,247.7521701,247.7286143,247.7232481,247.7356376,247.7537879,247.8067393,247.8282039,247.8612295,247.909959,247.9777462,248.0337753,248.0340909,248.0430477,248.0619476,248.0718513,248.0703914,248.0293561,247.5663668,247.1839094,247.2616793,247.2959675,247.4718671,247.4759312,247.507773,247.5661695,247.5492424,247.555161,247.5543718,247.5523201,247.5799795,247.5938289,247.6558554,247.7138573,247.7453835,247.7459754,247.7948627,247.8333333,247.8562184,247.86119,247.8583491,247.9180477,248.0058791,247.8165246,247.3154593,247.1362058,247.2340988,247.3501815,247.478851,247.5113242,247.524345,247.5382339,247.5446654,247.5394176,247.5357876,247.534959,247.5354324,247.5737847,247.7470407,247.8104877,247.8300189,247.8675821,247.8797348,247.8719618,247.8716461,247.9008444,247.8909801,247.8671875,247.4283854,247.1251184,247.2102273,247.329506,247.5037879,247.5175584,247.5219381,247.5287247,247.533578,247.520636,247.5030777,247.4959754,247.5230429,247.5267519,247.5533854,247.5775331,247.6089804,247.6316288,247.6933791,247.7300347,247.7344934,247.7687816,247.7965199,247.7690183,247.4165088,246.8607955,246.8600458,246.95131,247.0834517,247.1253551,247.1391651,247.1934975,247.1938131,247.1923138,247.2211569,247.2176847,247.2125552,247.2307055,247.2593908,247.3007813,247.320786,247.341422,247.3618608,247.4685527,247.5344855,247.5420218,247.5740609,247.5838463,247.5825442,247.2743845,246.7924164,246.8131313,246.9152857,246.9782197,247.0916982,247.2118056,247.2533144,247.2395833,247.2260101,247.2153961,247.2163037,247.2524858,247.2682686,247.3100142,247.4700126,247.4750237,247.4946733,247.5081282,247.5208333,247.5284091,247.5450994,247.5797033,247.606179,247.4960148,247.0888179,247.0005524,247.0238715,247.0754025,247.16497,247.241714,247.3966619,247.3785117,247.3715278,247.3456439,247.3412642,247.3526278,247.3910985,247.4642914,247.4695391,247.5479009,247.5569366,247.5902383,247.6025884,247.6424795,247.7644807,247.7532749,247.6898674,247.1989031,247.0023674,246.9798374,247.0033933,247.1014441,247.1525016,247.1852904,247.2365451,247.2522491,247.2393466,247.2365846,247.2595486,247.2836569,247.3348722,247.3950047,247.534012,247.5360638,247.5327888,247.5325915,247.5599353,247.5726799,247.5905934,247.5925268,247.5140862,247.0495975,246.747672,246.8105271,246.9289773,246.9659091,246.9881629,247.0220565,247.0554372,247.1017598,247.1181739,247.1175426,247.1264994,247.1569602,247.2118845,247.320273,247.3539299,247.3725931,247.4019492,247.4092882,247.4013179,247.4134706,247.4307923,247.4538352,247.4505208,247.1216461,246.5878314,246.5894097,246.6800426,246.7349669,246.8783144,246.9801926,247.0226484,247.0215041,247.050584,247.0434028,247.0365372,247.0492819,247.0598564,247.0923295,247.1852115,247.221946,247.2633365,247.3062263,247.4088542,247.4169034,247.4335938,247.3817077,247.0162958,246.6229482,246.6588542,246.7423059,246.8583097,246.9337121,247.0567393,247.1433081,247.1437421,247.1296559,247.1178188,247.1147412,247.1224747,247.1714804,247.1897491,247.2262468,247.3493924,247.3586253,247.3670691,247.3693182,247.3767756,247.3810764,247.3465515,246.8236664,246.4243213,246.4310685,246.5432449,246.646583,246.7057686,246.7514994,246.80378,246.7980587,246.790917,246.7838147,246.7939552,246.8025568,246.828125,246.8635574,246.9681581,247.0699574,247.1275253,247.1298138,247.1437421,247.1883681,247.197167,247.1796875,246.8197996,246.4350142,246.339607,246.3948074,246.4424716,246.4992109,246.5323548,246.5901594,246.6281566,246.630958,246.6386521,246.6410196,246.6644571,246.7291667,246.7829072,246.8389757,246.9151673,246.9315814,246.9419586,246.9861506,247.0109296,246.9483902,246.5325126,246.1652462,246.1728614,246.2640467,246.3677399,246.4469697,246.4852036,246.6109138,246.689315,246.6827257,246.6796875,246.6818576,246.7105035,246.7403725,246.7629025,246.8938999,246.9457071,246.9986979,247.0361821,246.9759312,246.5301057,246.0000789,246.007339,246.1118213,246.3533381,246.6538037,246.7479877,246.8064236,246.8244949,246.8324258,246.8394886,246.9061316,247.0077336,247.0619081,247.1989031,247.2392282,247.278488,247.1594066,246.6478062,246.6395597,246.6618529,246.8523122,247.0394965,247.0793087,247.1394413,247.1504498,247.1785432,247.2308633,247.3363715,247.4793245,247.5737058,247.5823074,247.5757576,247.5658144,247.2507891,246.8697917,246.9079467,247.0522017,247.1068892,247.2391493,247.2604167,247.2526042,247.2602983,247.2610085,247.270636,247.2726089,247.3390546,247.5069839,247.5531487,247.5577257,247.5591461,247.5354324,246.9622396,246.5236742,246.6412169,246.7863005,246.8564157,246.9619239,247.0176768
247.51732165404042, 30.939665206755052
247.25706281565655, 61.846798058712125
246.9335542929293, 92.71349234532829
246.90530303030303, 123.57665522411617
246.93114741161617, 154.4430486505682
246.9463778409091, 185.3113458806818
246.97344539141415, 216.18302655460857
246.99435763888889, 247.0573212594697
247.0396543560606, 246.9976128472222
247.07595486111111, 246.97497435290404
247.08167613636363, 246.99348958333331
247.08862058080808, 247.01640427714645
247.09958964646464, 247.0374595565025
247.13699494949495, 247.06128669507575
247.1814630681818, 247.0872889046717
247.25528724747474, 247.11990510574495
247.2656644570707, 247.14815636837122
247.32461332070707, 247.17923867582073
247.353851010101, 247.21326053503788
247.35965119949495, 247.24713936237373
247.37622316919192, 247.28171855271464
247.4258207070707, 247.3178217724116
247.45793876262627, 247.35238123421718
247.48907039141415, 247.38160412720958
247.5054845328283, 247.41158163667927
247.4698547979798, 247.42973682133834
247.17372948232324, 247.40722163036617
246.98753156565655, 247.36070667613635
246.95951704545453, 247.3086184106692
247.00027619949495, 247.25542534722223
247.1020754419192, 247.2109424321338
247.11020359848484, 247.16358408301767
247.10973011363637, 247.11411478061865
247.12630208333334, 247.07117069128785
247.1289457070707, 247.06557271938127
247.1388494318182, 247.0844874526515
247.14216382575756, 247.10731830018938
247.1422032828283, 247.12505918560606
247.16047190656565, 247.13235874368686
247.23062657828282, 247.1474116161616
247.2950994318182, 247.17058278093432
247.32780934343435, 247.195771188447
247.34528882575756, 247.22281407828285
247.3705018939394, 247.25177063604798
247.36426767676767, 247.27953361742425
247.41552241161617, 247.31369850852275
247.4223879419192, 247.34643801294192
247.44606218434345, 247.3733674636995
247.44294507575756, 247.3918481691919
247.34883996212122, 247.39447699652777
246.9916745580808, 247.3502752130682
246.90688131313132, 247.29232264046718
246.947601010101, 247.24023930713383
247.0151515151515, 247.19019294507575
247.0719696969697, 247.14639066445707
247.12480271464648, 247.10623323074495
247.19120896464648, 247.07476621685606
247.18895991161617, 247.05478121054293
247.19022253787878, 247.07959970801767
247.17716224747474, 247.1133848248106
247.2438446969697, 247.1504152856692
247.24593592171718, 247.1792633364899
247.24652777777777, 247.2010830965909
247.24779040404042, 247.21645655776516
247.26964962121212, 247.22626163983585
247.30318813131314, 247.24054016729798
247.36367582070707, 247.26222182765156
247.40108112373738, 247.29021168718438
247.43714488636363, 247.3143742108586
247.4932528409091, 247.34528882575756
247.45442708333334, 247.371276238952
247.18383049242425, 247.36328125
246.943023989899, 247.32245304608585
246.94803503787878, 247.27805890940658
247.0034327651515, 247.23302852746212
247.07848011363637, 247.19270340119948
247.11497790404042, 247.1524325284091
247.15313289141415, 247.10991753472223
247.17578125, 247.07508680555554
247.19219539141415, 247.07613241792927
247.1846985479798, 247.10634173768938
247.19006470959596, 247.13659544665404
247.21515940656565, 247.1630612768308
247.21886837121212, 247.18060980902777
247.2773042929293, 247.2009006076389
247.28381470959596, 247.2172358349116
247.30216224747474, 247.23303345959596
247.35345643939394, 247.25319109059342
247.39918718434345, 247.28000217013889
247.41946811868686, 247.30867759627526
247.51712436868686, 247.3464232165404
247.51534880050505, 247.38348327020202
247.4090909090909, 247.39995659722223
246.9620422979798, 247.3597350457702
246.79056186868686, 247.2957849984217
246.80551609848484, 247.22729245580805
246.81932607323233, 247.15480981691917
246.9044744318182, 247.0904356060606
246.92388731060606, 247.0162809738005
246.94132733585857, 246.94452829071972
246.96800031565655, 246.88939196654042
246.99368686868686, 246.89334753787878
247.0011047979798, 246.91966540404042
246.99479166666666, 246.94332485006314
246.9994081439394, 246.96583510890153
247.01708491161617, 246.9799114188763
247.04198232323233, 246.99467329545456
247.1591303661616, 247.02189867424244
247.18185763888889, 247.04863083964645
247.1903409090909, 247.07321259469697
247.22234059343435, 247.1008670691288
247.23626893939394, 247.13105172821972
247.24992108585857, 247.16236584595964
247.26988636363637, 247.19396602746212
247.26649305555554, 247.22202986900254
247.20458491161617, 247.22771168718435
246.7841303661616, 247.17799577809342
246.54513888888889, 247.0973455255682
246.5140467171717, 247.00880879103534
246.5112058080808, 246.9181758996212
246.60077335858585, 246.83703243371215
246.6049163510101, 246.75391118213386
246.619476010101, 246.67303405145202
246.65214646464648, 246.6039792455808
246.69168244949495, 246.59242325599746
246.7007970328283, 246.6118805239899
246.70458491161617, 246.63569779829544
246.71835542929293, 246.66159150094694
246.7755287247475, 246.68343592171718
246.8096196338384, 246.7090238320707
246.88691603535352, 246.74245383522728
246.94669349747474, 246.77927221433083
247.0084043560606, 246.81886245265153
247.0323942550505, 246.8603121054293
247.06885258838383, 246.90584556502526
247.0764678030303, 246.95060961174244
247.06660353535352, 246.9869939630682
247.07713857323233, 247.02043383049244
247.08992266414143, 247.0458096590909
247.08629261363637, 247.0632595486111
246.92885890151516, 247.05331636679293
246.490569760101, 246.98558830492425
246.39883207070707, 246.90183574021466
246.45044191919192, 246.82358250473484
246.47502367424244, 246.749635022096
246.49585700757575, 246.6769748263889
246.50185448232324, 246.60346630366163
246.55314867424244, 246.53682331123738
246.59517045454547, 246.4951122553662
246.5888178661616, 246.50739326862376
246.6416903409091, 246.537750552399
246.6551057449495, 246.56333353061868
246.6712831439394, 246.5878659643308
246.6740056818182, 246.61013454861111
246.7153961489899, 246.63682725694446
246.7818023989899, 246.66540897253788
246.85018150252526, 246.69728535353534
246.94539141414143, 246.7418570470328
246.96961805555554, 246.78284801136363
246.96740845959596, 246.8218858506944
246.98188920454547, 246.8607116082702
247.01763731060606, 246.9036655618687
247.05220170454547, 246.94576625631314
247.05153093434345, 246.9794823232323
247.06680082070707, 247.00655973800508
247.06680082070707, 247.02173591382578
246.93402777777777, 247.01728712910358
246.55764678030303, 246.96606691919195
246.45375631313132, 246.90005030776516
246.49877683080808, 246.83519274779042
246.55504261363637, 246.7730478614268
246.5552004419192, 246.71100654987373
246.56881313131314, 246.64875808869948
246.61474116161617, 246.59225063131314
246.63999368686868, 246.5554963699495
246.64232165404042, 246.56608072916666
246.66339172979798, 246.59228515624997
246.68623737373738, 246.61571772411617
246.7244318181818, 246.63689137468432
246.76692708333334, 246.66335720486111
246.9197837752525, 246.70722853535352
246.9331202651515, 246.74702592329544
246.94266887626262, 246.78486032196966
246.95213857323233, 246.82358743686868
246.96689551767676, 246.86152541035352
247.0312105429293, 246.9046470565025
247.14050662878788, 246.9566564078283
247.17223011363637, 247.00731928661617
247.169586489899, 247.03854462594697
247.13746843434345, 247.06408814709596
246.82331123737373, 247.04916844223487
246.52596275252526, 246.99589646464645
246.48074494949495, 246.93512764362373
246.5151515151515, 246.8706202651515
246.541351010101, 246.79572581281562
246.5769807449495, 246.7213196417298
246.59777462121212, 246.64984315814394
246.63273358585857, 246.58675130208331
246.6372316919192, 246.5634913589015
246.64543876262627, 246.57842586016415
246.62705176767676, 246.59671421243686
246.64129577020202, 246.6124822443182
246.67112531565655, 246.62870403251262
246.70052083333334, 246.6441465435606
246.77103061868686, 246.66580354324495
246.85239109848484, 246.6932607323232
246.91252367424244, 246.72767223011363
246.92440025252526, 246.762542416351
246.9302004419192, 246.8004360006313
246.94783775252526, 246.8387537484217
247.03002683080808, 246.88361643781565
247.0323547979798, 246.92509568339648
247.03665561868686, 246.95829880839648
247.00019728535352, 246.97677458175505
246.60570549242425, 246.93842230902777
246.35538983585857, 246.86729600694446
246.35065498737373, 246.79485282512627
246.3721985479798, 246.72289792455808
246.44041982323233, 246.6491970486111
246.4620817550505, 246.57791291824495
246.47691761363637, 246.50794566761363
246.49826388888889, 246.44520399305557
246.51570391414143, 246.43395379577018
246.51933396464648, 246.45444681186868
246.53318339646464, 246.47726286300502
246.55050505050505, 246.4995511758207
246.58672664141415, 246.51783952809345
246.60866477272728, 246.53616240530303
246.64307133838383, 246.55693162089645
246.74925031565655, 246.58830492424244
246.7672032828283, 246.6197423453283
246.78839172979798, 246.6533745659722
246.81155303030303, 246.688170770202
246.83376736111111, 246.72357855902777
246.8460779671717, 246.75599747474746
246.86284722222223, 246.78777028093435
246.8733428030303, 246.81655421401516
246.8700678661616, 246.83165640782826
246.71188446969697, 246.82474155618686
246.30204387626262, 246.76394807449495
246.1746369949495, 246.68433357007575
246.19041982323233, 246.6039151278409
246.22506313131314, 246.52628827335857
246.29770359848484, 246.4556453203914
246.36497790404042, 246.39209970801767
246.48125789141415, 246.34349846117422
246.4972380050505, 246.31666765309345
246.5140467171717, 246.3431680082071
246.55326704545453, 246.3904967645202
246.54438920454547, 246.43474293718435
246.5909090909091, 246.48047368213383
246.61126893939394, 246.5196693497475
246.67250631313132, 246.55811040088383
246.73338857323233, 246.58962673611111
246.7645202020202, 246.62303701073233
246.7957307449495, 246.65824751420453
246.80445075757575, 246.6896454782197
246.83613478535352, 246.7261136758207
246.8677793560606, 246.76072245896464
246.89212436868686, 246.79582938762624
246.9275568181818, 246.82771070075756
246.94444444444446, 246.85409268465907
246.92148042929293, 246.8737127130682
246.74187184343435, 246.86698035037878
246.33566130050505, 246.80838166824492
246.31048768939394, 246.74267578125003
246.33976483585857, 246.67667396622477
246.3527067550505, 246.60924676452024
246.3778409090909, 246.5405322758839
246.41714015151516, 246.47461923926772
246.63577178030303, 246.43890565814394
246.64370265151516, 246.42663450915404
246.64161142676767, 246.46487827493686
246.64050662878788, 246.50613064236114
246.64977904040404, 246.54488241792933
246.64926609848484, 246.58195233585857
246.65601325757575, 246.61672387941917
246.67751736111111, 246.64927103061868
246.7169349747475, 246.65941642992425
246.76688762626262, 246.6748145517677
246.8515625, 246.70105843592174
246.89591224747474, 246.7329841382576
246.9480744949495, 246.77027107007575
246.96973642676767, 246.81032986111111
246.99262152777777, 246.85240589488637
246.99565972222223, 246.89217369002526
247.01377051767676, 246.9292781328914
246.99439709595958, 246.95771681660352
246.82504734848484, 246.95440242266412
246.49289772727272, 246.90402560763886
246.43544823232324, 246.83994732481062
246.4581360479798, 246.77599727746212
246.5296717171717, 246.71812855113637
246.56605113636363, 246.66442747790404
246.6255918560606, 246.61590514520202
246.68529040404042, 246.5772668087121
246.68434343434345, 246.55967881944443
246.69456281565655, 246.5848869554924
246.7143702651515, 246.61975220959596
246.7405303030303, 246.65505149147728
246.7913115530303, 246.68775647095958
246.81605113636363, 246.71900647095958
246.81778724747474, 246.74303089488637
246.85325915404042, 246.76402698863635
246.8460779671717, 246.7842438052399
246.8616240530303, 246.80512645991163
246.88517992424244, 246.826477667298
246.88450915404042, 246.84447502367425
246.89973958333334, 246.85802852746212
246.96800031565655, 246.87702217487373
246.98267834595958, 246.89763356218435
246.97060448232324, 246.91230172821972
246.65269886363637, 246.88812934027777
246.4307528409091, 246.83427043876264
246.40751262626262, 246.77456202651516
246.43221275252526, 246.71802497632572
246.4693023989899, 246.6642203282828
246.5513731060606, 246.61214192708331
246.59446022727272, 246.56361466224746
246.70837279040404, 246.53083570075756
246.72916666666666, 246.54039417613635
246.70580808080808, 246.57477608112373
246.71077967171718, 246.61268446180557
246.72687815656565, 246.6495176373106
246.75031565656565, 246.68464429450754
246.79363952020202, 246.71492759627523
246.85700757575756, 246.74774601483585
246.8843907828283, 246.76974826388886
246.8939788510101, 246.7903497869318
246.94507575757575, 246.8202582465278
247.01590119949495, 246.8583984375
247.02256944444446, 246.89535984848482
247.03582702020202, 246.9310487689394
247.05602904040404, 246.96384745896466
247.06664299242425, 246.99005188604795
247.04044349747474, 247.00955847537878
246.70845170454547, 246.9863675820707
246.36521464646464, 246.9138849431818
246.36864741161617, 246.832978219697
246.4150883838384, 246.7570430871212
246.47916666666666, 246.6874605429293
246.50950915404042, 246.61914555713383
246.5642755681818, 246.55634962910355
246.57571811868686, 246.49825895675505
246.609375, 246.48587436868686
246.6156092171717, 246.51717369002523
246.61111111111111, 246.5474816524621
246.58621369949495, 246.56887231691917
246.61967329545453, 246.58643564551767
246.69724589646464, 246.6099027383207
246.75311710858585, 246.63350793087122
246.78393308080808, 246.65953480113637
246.82394255050505, 246.68635574494948
246.84118529040404, 246.71455275410352
246.88553503787878, 246.7488557449495
246.91307607323233, 246.78971354166666
246.90755208333334, 246.8256983901515
246.93761837121212, 246.85574494949492
246.94570707070707, 246.8798186947601
246.9906092171717, 246.9056532118056
246.984375, 246.92570726799244
246.7104640151515, 246.90936710858585
246.28113162878788, 246.83381668244948
246.294586489899, 246.75650548453282
246.321930239899, 246.68330275410358
246.40376420454547, 246.6165709832702
246.48188920454547, 246.55859375000003
246.54588857323233, 246.5030036695076
246.63585069444446, 246.4594381313131
246.6406644570707, 246.450713186553
246.64330808080808, 246.49598524305557
246.63991477272728, 246.5391512784091
246.64050662878788, 246.5789733270202
246.64307133838383, 246.60888671875
246.64820075757575, 246.62967566287878
246.69803503787878, 246.64869397095958
246.72506313131314, 246.6598455255682
246.7299558080808, 246.67100694444443
246.79805871212122, 246.6903507733586
246.8237452651515, 246.7133295849116
246.8169586489899, 246.73538608743686
246.84627525252526, 246.76078657670453
246.8589015151515, 246.7871241714015
246.89551767676767, 246.81180950126262
246.92384785353536, 246.8366575915404
246.80437184343435, 246.8459595959596
246.38715277777777, 246.79459635416666
246.32682291666666, 246.7324810606061
246.35164141414143, 246.67431640625
246.41871843434345, 246.62087180397728
246.57911142676767, 246.5858980429293
246.58909406565655, 246.54759509154042
246.60077335858585, 246.50721077967174
246.59690656565655, 246.4812776199495
246.60002367424244, 246.5078864820076
246.59643308080808, 246.54158775252526
246.59355271464648, 246.5718266650884
246.59027777777777, 246.5932715830177
246.64283459595958, 246.60123697916666
246.73007417929293, 246.6188594933712
246.77986900252526, 246.64124644886363
246.84493371212122, 246.6722498421717
246.880523989899, 246.70731238162878
246.93714488636363, 246.74990135732327
246.9441682449495, 246.79372829861111
246.96212121212122, 246.84020872790404
246.9864662247475, 246.8831626815025
247.01412563131314, 246.91866911300508
247.0057212752525, 246.94690064709596
246.7037168560606, 246.92924854008837
246.389007260101, 246.8678089488636
246.37247474747474, 246.7972251815025
246.42720170454547, 246.73260436395202
246.48346748737373, 246.6727726483586
246.52091224747474, 246.6145784011995
246.53969381313132, 246.55527442392676
246.57354797979798, 246.50125276199498
246.58372790404042, 246.48625414299244
246.58084753787878, 246.51023417771464
246.58337279040404, 246.53659643308077
246.61797664141415, 246.5604433001894
246.63020833333334, 246.57878590593435
246.64026988636363, 246.59370561079544
246.65826231060606, 246.6085266729798
246.69101167929293, 246.62320963541663
246.7127130681818, 246.63933278093432
246.75907512626262, 246.6616112294823
246.79328440656565, 246.68785018150248
246.81739267676767, 246.7127771859217
246.83664772727272, 246.73858211016412
246.84181660353536, 246.7637754498106
246.88936237373738, 246.79266295770202
246.88521938131314, 246.81693892045456
246.83629261363637, 246.83238636363637
246.3638336489899, 246.78298117897725
246.18892045454547, 246.70743568497477
246.1747159090909, 246.62710108901518
246.23816287878788, 246.55229048295456
246.25662878787878, 246.4791420059975
246.2906407828283, 246.4043018071339
246.35175978535352, 246.33761935763889
246.3872316919192, 246.28148674242422
246.39299242424244, 246.2851315893308
246.3755129419192, 246.3084556502525
246.4101167929293, 246.33788076073233
246.43604008838383, 246.3626154119318
246.45833333333334, 246.38782848011363
246.5369712752525, 246.41861979166666
246.7097932449495, 246.46337397411614
246.7209990530303, 246.50509489425502
246.7880366161616, 246.55447541824495
246.80093907828282, 246.60765368529042
246.79995265151516, 246.65638316761368
246.81324968434345, 246.7035343671086
246.82122001262627, 246.74889520202024
246.80232007575756, 246.78206380208331
246.82382417929293, 246.79631766887624
246.8544034090909, 246.81299321338383
246.849944760101, 246.82073173137624
246.66236584595958, 246.80341007733585
246.25986426767676, 246.73589902935603
246.1707702020202, 246.65558909406565
246.20217803030303, 246.57820884627523
246.2997159090909, 246.51538332544192
246.3526672979798, 246.45648871527777
246.4520991161616, 246.40620067866166
246.48315183080808, 246.36035156250003
246.4642913510101, 246.33559225063132
246.46519886363637, 246.36125907512627
246.46077967171718, 246.39751025883837
246.46831597222223, 246.43077750157826
246.5267913510101, 246.45916193181816
246.55654198232324, 246.48464626736111
246.59394728535352, 246.50237728851013
246.66236584595958, 246.52477904040407
246.72415561868686, 246.55726207386365
246.74262152777777, 246.5919399068813
246.7880366161616, 246.63284702493686
246.81486742424244, 246.6761659564394
246.806305239899, 246.71110519255052
246.90648674242425, 246.75484828756316
246.9095643939394, 246.7943004261364
246.72790404040404, 246.80249270044197
246.28712910353536, 246.74786438604798
246.21630366161617, 246.68207465277777
246.23394097222223, 246.61281269728534
246.27884311868686, 246.5458096590909
246.3481691919192, 246.48854265309342
246.40297506313132, 246.4256036931818
246.4677241161616, 246.3703736584596
246.48914930555554, 246.34052931660352
246.48859690656565, 246.3657127919823
246.48516414141415, 246.39932035195704
246.4899384469697, 246.4313200363005
246.49514678030303, 246.4583579940025
246.51641414141415, 246.47938861268938
246.60345643939394, 246.50444878472223
246.6127288510101, 246.5225743765783
246.65814393939394, 246.54369870580808
246.71756628787878, 246.57231987847223
246.73283617424244, 246.60327888257578
246.75071022727272, 246.63587535511365
246.75907512626262, 246.6688663983586
246.7989662247475, 246.70418540877526
246.85665246212122, 246.73583491161617
246.85057607323233, 246.76556581439397
246.69440498737373, 246.77009844539143
246.26369160353536, 246.71336410984847
246.03815498737373, 246.6265289614899
246.06321022727272, 246.5405914614899
246.21583017676767, 246.47268584280303
246.23642676767676, 246.40236841066917
246.24293718434345, 246.32565400094697
246.26637468434345, 246.25262882733585
246.29872948232324, 246.20316938920456
246.29892676767676, 246.20757378472223
246.30890940656565, 246.24141808712122
246.31115845959596, 246.2724116161616
246.31597222222223, 246.28492937184342
246.34955018939394, 246.29906979955808
246.43655303030303, 246.323271780303
246.5145991161616, 246.3542998342803
246.54221906565655, 246.38473603219697
246.58976483585857, 246.42109079071972
246.61785827020202, 246.45970939867425
246.66473327020202, 246.50390625000003
246.67783301767676, 246.54913884943184
246.69827178030303, 246.59272904829544
246.69929766414143, 246.62557212752523
246.72364267676767, 246.65170257260098
246.7243134469697, 246.67446437026516
246.67771464646464, 246.6854580965909
246.36186079545453, 246.6534584122475
246.04308712121212, 246.57575264362373
246.06893150252526, 246.4996399542298
246.11008522727272, 246.426116635101
246.20612373737373, 246.36446989425502
246.2432528409091, 246.3044211647727
246.2550110479798, 246.24575836489896
246.3003077651515, 246.19858250473482
246.3677398989899, 246.19931739267673
246.37791982323233, 246.24117148042927
246.37014678030303, 246.2788233901515
246.38478535353536, 246.31316090593432
246.39551767676767, 246.33683514835857
246.39468907828282, 246.3557646780303
246.4145359848485, 246.37570529513889
246.43785511363637, 246.39289871369948
246.46472537878788, 246.40502189867425
246.51392834595958, 246.42202296401516
246.55591066919192, 246.44524345012627
246.59730113636363, 246.4718079229798
246.6226720328283, 246.50020221748736
246.66654829545453, 246.53418461963383
246.68489583333334, 246.56797960069443
246.66595643939394, 246.59649226641412
246.45233585858585, 246.59494357638889
246.1233428030303, 246.54612038352272
246.11312342171718, 246.49077197758837
246.19053819444446, 246.4399266098485
246.28764204545453, 246.39804786142673
246.30547664141415, 246.35291390467168
246.4330413510101, 246.32143209438132
246.4559264520202, 246.29517834595958
246.44539141414143, 246.29431029040404
246.4434974747475, 246.33432962436868
246.44266887626262, 246.3755228061869
246.45971433080808, 246.40916982323233
246.47013099747474, 246.43198094223487
246.47778566919192, 246.45351957070707
246.55338541666666, 246.46856257891415
246.56624842171718, 246.48235282512627
246.58132102272728, 246.4993440261995
246.5842803030303, 246.51694187973482
246.59063289141415, 246.53543738162875
246.5992345328283, 246.5528774068813
246.6110321969697, 246.57049005681816
246.63202335858585, 246.58976976799244
246.56388099747474, 246.59108171559348
246.14599116161617, 246.53854955808083
245.97127525252526, 246.46229383680557
246.0273832070707, 246.3926816998106
246.07015467171718, 246.32762192234847
246.1846985479798, 246.27580492424238
246.24901357323233, 246.23055259627523
246.30587121212122, 246.18978357796718
246.31605113636363, 246.1588048453283
246.30835700757575, 246.17910057607324
246.30851483585857, 246.22125552398992
246.3125, 246.2568951231061
246.3180634469697, 246.28788372001264
246.36979166666666, 246.3110203598485
246.38577178030303, 246.32811513573233
246.4119318181818, 246.3413727114899
246.4560053661616, 246.35886699021464
246.51874210858585, 246.3851651278409
246.5463620580808, 246.4148960306187
246.564117739899, 246.4463482481061
246.61229482323233, 246.4831271701389
246.61355744949495, 246.51359789299244
246.7338620580808, 246.55710917771466
246.71354166666666, 246.59481040877526
246.3129734848485, 246.57693142361111
246.00272253787878, 246.51242897727272
245.9464567550505, 246.43744081439394
245.99143781565655, 246.36585582386365
246.02825126262627, 246.2928503787879
246.07346906565655, 246.22533933080808
246.4535984848485, 246.19030638415404
246.46654040404042, 246.15943122632575
246.48504577020202, 246.18094026199495
246.47975852272728, 246.240569760101
246.47486584595958, 246.30662089646464
246.48516414141415, 246.36833668718432
246.4965672348485, 246.42687618371212
246.52071496212122, 246.4827819207702
246.5892913510101, 246.49974352904042
246.6505681818182, 246.52274700126264
246.68611900252526, 246.54788115530303
246.74408143939394, 246.58092151988637
246.7678740530303, 246.6175475457702
246.79592803030303, 246.65639303188132
246.80729166666666, 246.69523358585857
246.8252840909091, 246.73330472695707
246.85010258838383, 246.76590613162878
246.842132260101, 246.78985164141412
246.6299715909091, 246.7828332149621
246.16923137626262, 246.71097695707067
246.091461489899, 246.62642538667927
246.13364109848484, 246.54363952020202
246.23283617424244, 246.47183258364902
246.23634785353536, 246.39821555397728
247.03326231060606, 246.42111051925505
248.12405303030303, 246.58135061553028
248.1261442550505, 246.76837219854798
248.1328125, 247.01381983901516
248.13435132575756, 247.26918106849746
248.13320707070707, 247.51912681502526
248.13478535353536, 247.75687046243686
248.13273358585857, 247.99391867897728
248.17207228535352, 248.13626992582073
248.1824889520202, 248.1435744160354
248.25485321969697, 248.15966303661617
248.28144728535352, 248.17824238478536
248.31435448232324, 248.2007427793561
248.31056660353536, 248.2229127209596
248.35688920454547, 248.25067570233588
248.36584595959596, 248.27981474905306
248.39429450757575, 248.3075925268308
248.31127683080808, 248.32369101167927
247.93292297979798, 248.28344973169192
247.79328440656565, 248.22242937184342
247.78701073232324, 248.15651140309342
247.84051452020202, 248.0977548926768
247.88312815656565, 248.0385347616793
247.97727272727272, 247.98996310763889
248.00185448232324, 247.94090810448233
248.06861584595958, 247.91057548137627
248.06052714646464, 247.9265260022096
248.0419034090909, 247.9576033775253
248.10278566919192, 247.99707524463386
248.09288194444446, 248.02862117266415
248.10250946969697, 248.05604383680554
248.13360164141415, 248.07558495107324
248.14756944444446, 248.0937993213384
248.22754892676767, 248.11366595643938
248.32169349747474, 248.14631175031565
248.3661616161616, 248.18684402619954
248.35973011363637, 248.21896208175508
248.40755208333334, 248.25829584911614
248.44270833333334, 248.30082070707067
248.4279119318182, 248.33760949337122
248.32686237373738, 248.36002110953282
247.89334753787878, 248.31824593592174
247.7980192550505, 248.2527866556187
247.8030303030303, 248.18239524147728
247.86111111111111, 248.12006786616163
247.89488636363637, 248.05598465119948
247.93398832070707, 247.9923946496212
247.99751420454547, 247.93859493371212
248.03488005050505, 247.9020971433081
248.05157039141415, 247.921875
248.04786142676767, 247.95310527146464
248.05007102272728, 247.98398536142676
248.07275883838383, 248.01044132733585
248.1351404671717, 248.04047309027777
248.20888573232324, 248.0748352667298
248.22790404040404, 248.10363399621212
248.26266571969697, 248.13210720486114
248.3106849747475, 248.1644965277778
248.39378156565655, 248.2077365451389
248.40143623737373, 248.2516571969697
248.404632260101, 248.29314137468432
248.4140625, 248.32800662878785
248.42834595959596, 248.35543915719694
248.41599589646464, 248.37895063920456
248.29075915404042, 248.3824623184975
247.85464015151516, 248.32545671559345
247.76294191919192, 248.24660175978536
247.77805397727272, 248.16867897727275
247.8125394570707, 248.09466737689394
247.85716540404042, 248.025055239899
247.90159406565655, 247.95921125315655
247.92479482323233, 247.89781111900254
247.94018308080808, 247.8539891098485
247.9576231060606, 247.86686197916666
247.9697758838384, 247.89271622474746
247.96547506313132, 247.9161438604798
247.97664141414143, 247.93665660511363
248.07200915404042, 247.96351207386365
248.23082386363637, 248.00466579861114
248.23362531565655, 248.04326961016417
248.23686079545453, 248.08035432449495
248.28815498737373, 248.1216708096591
248.30669981060606, 248.16378630050502
248.3302162247475, 248.20937894570707
248.35641571969697, 248.25685073390153
248.36805555555554, 248.29385653409093
248.38450915404042, 248.31306719539143
248.42179608585857, 248.33658854166666
248.32615214646464, 248.34774996054293
248.12302714646464, 248.32710898042933
247.7934422348485, 248.2629517834596
247.79644097222223, 248.19622987689394
247.79308712121212, 248.12581380208331
247.83001893939394, 248.0585592250631
247.85854640151516, 247.9928138809975
247.94444444444446, 247.93314492582073
248.0216224747475, 247.8950787168561
248.01767676767676, 247.8819099195076
248.01428345959596, 247.90951507260104
248.00217013888889, 247.93523121843432
248.00607638888889, 247.96185487689394
248.03393308080808, 247.9873441445707
248.05401672979798, 248.01177793560606
248.11237373737373, 248.0327690972222
248.23508522727272, 248.05945194128788
248.2348879419192, 248.0866033380682
248.26467803030303, 248.11790265940655
248.30480587121212, 248.15573212594694
248.3375157828283, 248.19716205018938
248.3773279671717, 248.24008641098487
248.39705650252526, 248.28296638257575
248.3888494318182, 248.31752584438132
248.32591540404042, 248.32887961647728
248.07110164141415, 248.30840632891415
247.82216698232324, 248.25309244791669
247.79833491161617, 248.18978357796718
247.8783538510101, 248.13238833648992
247.8978456439394, 248.07245304608588
248.00935132575756, 248.0239898989899
248.02422664141415, 247.9784120501894
248.02035984848484, 247.94021760574495
248.01025883838383, 247.93261225536614
248.00974589646464, 247.95605961963383
248.01156092171718, 247.98271287089645
248.01483585858585, 247.99977312184342
248.01440183080808, 248.01434264520202
248.05879103535352, 248.02052260890153
248.10637626262627, 248.03079131155306
248.12910353535352, 248.04438427241163
248.22305082070707, 248.07098327020205
248.26294191919192, 248.10263277304296
248.31620896464648, 248.1407137784091
248.33218907828282, 248.18038293087122
248.3510101010101, 248.22245896464648
248.3694365530303, 248.26128965435606
248.37807765151516, 248.2952523279672
248.29561237373738, 248.31606593276516
247.93095012626262, 248.2795533459596
247.76984690656565, 248.21791646938132
247.81778724747474, 248.15561375473484
247.82488952020202, 248.09220130997477
247.8700284090909, 248.03207859848487
247.88604797979798, 247.97165502683083
247.89464962121212, 247.9112265230429
247.94077493686868, 247.86687184343432
247.951507260101, 247.86944148516415
247.9552556818182, 247.8926175820707
247.943694760101, 247.908356021149
248.01542771464648, 247.93217329545453
248.0166903409091, 247.95050603693178
248.04000946969697, 247.96975122316917
248.0479403409091, 247.9889125631313
248.0792692550505, 248.00622435290404
248.11450441919192, 248.0265989977904
248.23429608585857, 248.06147904829547
248.21081912878788, 248.09486959438135
248.2008759469697, 248.11805062342174
248.29884785353536, 248.15332031250003
248.33163667929293, 248.18977371369948
248.33009785353536, 248.22504340277774
248.31399936868686, 248.2543846669823
248.06684027777777, 248.24842664930554
247.66721906565655, 248.1775420217803
247.7075836489899, 248.11463758680557
247.76475694444446, 248.0601227114899
247.80721275252526, 247.99866832386363
247.81774779040404, 247.93443221275254
247.83502998737373, 247.87254872948233
247.84169823232324, 247.8135110874369
247.85416666666666, 247.786926886048
247.86414930555554, 247.8115431660354
247.8660432449495, 247.83135061553034
247.8627288510101, 247.843597103851
247.8660432449495, 247.85095091540404
247.92313762626262, 247.86412464488635
248.01179766414143, 247.8862206044823
248.06332859848484, 247.91392440025248
248.06991792929293, 247.9408933080808
248.15589488636363, 247.9773615056818
248.15944602272728, 248.014036852904
248.15865688131314, 248.05102785669195
248.16528566919192, 248.08843315972223
248.16702178030303, 248.11891867897728
248.17223011363637, 248.13897273516415
248.08862058080808, 248.14213423295453
247.66579861111111, 248.0916193181818
247.59343434343435, 248.02131175031568
247.63304924242425, 247.9555121527778
247.64764835858585, 247.8916360874369
247.6857244318182, 247.83169093276516
247.70734690656565, 247.77423157354798
247.75714172979798, 247.7223455255682
247.7745422979798, 247.68308574021466
247.7801452020202, 247.6973790640783
247.77414772727272, 247.7199682370581
247.76538825757575, 247.73651061395202
247.76759785353536, 247.7515043008207
247.84627525252526, 247.77157315340907
247.90419823232324, 247.79617956912878
247.9781407828283, 247.82380445075756
248.0223327020202, 247.85477825126264
248.04774305555554, 247.88822798295456
248.0531092171717, 247.92309816919197
248.11205808080808, 247.966431897096
248.13190498737373, 248.01197028882578
248.13372001262627, 248.04790088383837
248.1083096590909, 248.07341481218435
247.8310053661616, 248.05502288510104
247.5139678030303, 247.99147727272728
247.50919349747474, 247.9241585779672
247.5166903409091, 247.85710621843432
247.52039930555554, 247.78314887152777
247.53030303030303, 247.70794862689394
247.5568181818182, 247.63583589804293
247.58226799242425, 247.57008068970958
247.62144886363637, 247.54388612689394
247.62977430555554, 247.55836193970958
247.6444917929293, 247.57527422664145
247.66256313131314, 247.59350832544192
247.67175662878788, 247.61242799084596
247.75769412878788, 247.64085187815658
247.83727904040404, 247.67590948547985
247.9152067550505, 247.7175268308081
247.982757260101, 247.76269038036617
247.99175347222223, 247.80793777619948
247.99289772727272, 247.8514885179924
247.99226641414143, 247.89270142834593
248.0010258838384, 247.93386008522725
248.01144255050505, 247.96557863794192
248.0372474747475, 247.99057469223484
248.0177556818182, 248.00339330808083
247.73749210858585, 247.97273516414145
247.44622001262627, 247.90454348169195
247.41216856060606, 247.8319523358586
247.43454071969697, 247.76223662405303
247.44412878787878, 247.69262448705808
247.44314236111111, 247.62158696338383
247.484375, 247.5524779040404
247.62795928030303, 247.503753353851
247.6440183080808, 247.49206912878788
247.62922190656565, 247.51494436553028
247.63257575757575, 247.5424952651515
247.63632417929293, 247.56771819760098
247.6416903409091, 247.59241339172976
247.67337436868686, 247.62119239267673
247.69700915404042, 247.64777166193178
247.74680397727272, 247.66262724905303
247.8343592171717, 247.68641986268938
247.83159722222223, 247.71171677714648
247.8106849747475, 247.73398042929293
247.83940972222223, 247.7593661221591
247.8705018939394, 247.7879675662879
247.91449652777777, 247.81810783617428
247.94558869949495, 247.8491802793561
247.89926609848484, 247.8682380445076
247.58242582070707, 247.83674636994948
247.26444128787878, 247.76585187815655
247.29198232323233, 247.70101404671718
247.33285984848484, 247.6376953125
247.40814393939394, 247.5799005681818
247.44732481060606, 247.52150410353534
247.53053977272728, 247.46962298768938
247.56384154040404, 247.42769491792927
247.60858585858585, 247.43096492266412
247.60503472222223, 247.47353910195707
247.58175505050505, 247.50976069286617
247.58372790404042, 247.5411191998106
247.60247001262627, 247.56540995896466
247.74017518939394, 247.60201625631314
247.74704071969697, 247.62907887468435
247.76929450757575, 247.65476049558083
247.77714646464648, 247.6758305713384
247.7913904671717, 247.6991250394571
247.806305239899, 247.72719381313132
247.81226325757575, 247.75576073232327
247.83913352272728, 247.78534367108588
247.8338462752525, 247.79705255681816
247.7182370580808, 247.79345209911617
247.50351167929293, 247.7602292455808
247.38762626262627, 247.71153922032826
247.41165561868686, 247.66407236426767
247.46500157828282, 247.62140940656568
247.5603693181818, 247.58992266414143
247.57544191919192, 247.55696121369948
247.62803819444446, 247.5312352035985
247.64824021464648, 247.5224855981692
247.66934974747474, 247.54321535669195
247.66777146464648, 247.57823350694446
247.66102430555554, 247.60940459280306
247.66832386363637, 247.63481987847223
247.71752683080808, 247.65446456755055
247.73741319444446, 247.6747109769571
247.76002209595958, 247.69120896464645
247.7817629419192, 247.70789930555557
247.79750631313132, 247.72391887626264
247.81423611111111, 247.74222695707073
247.82938762626262, 247.7632723721591
247.84939236111111, 247.78590593434342
247.85961174242425, 247.80366654829544
247.81332859848484, 247.8131559738005
247.34860321969697, 247.76172861426767
247.21618529040404, 247.6910314078283
247.20845170454547, 247.61739958175508
247.2601404671717, 247.54813762626264
247.28633996212122, 247.48025666824495
247.28523516414143, 247.40973701862376
247.32382417929293, 247.3427635732323
247.34639362373738, 247.28439670138889
247.36864741161617, 247.28690222537878
247.34970801767676, 247.30359256628788
247.3510495580808, 247.3214172979798
247.37859059343435, 247.33622356376262
247.38549558080808, 247.3486180160985
247.43718434343435, 247.3676116635101
247.52256944444446, 247.39245482165404
247.59102746212122, 247.42303405145205
247.62507891414143, 247.4550879892677
247.65889362373738, 247.49373619002523
247.68339646464648, 247.53527955334596
247.68718434343435, 247.57385377209596
247.7065183080808, 247.61398161300505
247.7244318181818, 247.6498875473485
247.7205255681818, 247.67463206281565
247.5713778409091, 247.67217586016412
247.1947601010101, 247.61838600852272
247.11726641414143, 247.5506826073232
247.15297506313132, 247.48437993213383
247.20304608585857, 247.42386264993686
247.24487058080808, 247.3661566840278
247.25481376262627, 247.30745442708334
247.25359059343435, 247.24908755523992
247.263336489899, 247.21058238636365
247.26649305555554, 247.2195490056818
247.30271464646464, 247.24273003472223
247.31171085858585, 247.26257200915407
247.31739267676767, 247.2768653330177
247.34564393939394, 247.2894620028409
247.37282986111111, 247.30421401515153
247.4765625, 247.33208550347223
247.53495896464648, 247.36603831281565
247.58238636363637, 247.40552497632575
247.62689393939394, 247.44604738794192
247.64204545454547, 247.4873392124369
247.68955176767676, 247.53385909880052
247.70829387626262, 247.57919034090907
247.7137784090909, 247.62180890940658
247.74293718434345, 247.6551057449495
247.73445391414143, 247.68004261363637
247.51534880050505, 247.67166291824495
247.1730192550505, 247.61492858270202
247.16437815656565, 247.55522017045453
247.20486111111111, 247.49463383838383
247.2566682449495, 247.4381806344697
247.29553345959596, 247.3859000157828
247.38636363636363, 247.34132832228534
247.38581123737373, 247.29774798768938
247.4202967171717, 247.28586647727275
247.46231849747474, 247.32202888257575
247.49348958333334, 247.36316781092174
247.48839962121212, 247.39861012468435
247.50142045454547, 247.42920415088383
247.52986900252526, 247.45849609375
247.5825441919192, 247.48301866319446
247.6226720328283, 247.51262626262627
247.78199968434345, 247.55783913352272
247.80504261363637, 247.60067964804296
247.80954071969697, 247.6401860400884
247.83337279040404, 247.6833076862374
247.89137468434345, 247.73205196496215
247.90763099747474, 247.7792722143308
247.87898516414143, 247.81632733585857
247.69385258838383, 247.82522490530303
247.310211489899, 247.7662513809975
247.27868529040404, 247.70045671559342
247.30263573232324, 247.6370935921717
247.33846275252526, 247.5752298374369
247.36845012626262, 247.50986426767676
247.44219539141415, 247.45168481691917
247.484375, 247.4023585464015
247.51937342171718, 247.38054865056816
247.51763731060606, 247.40647687815655
247.5166903409091, 247.43622750946966
247.51649305555554, 247.46295967487373
247.52091224747474, 247.48576586174244
247.55831755050505, 247.50949928977272
247.62594696969697, 247.5324682370581
247.66015625, 247.55444089330808
247.6718355429293, 247.57349865845958
247.78914141414143, 247.6074366714015
247.79229797979798, 247.64188762626262
247.8025962752525, 247.6776505287247
247.81336805555554, 247.71420750473482
247.8326231060606, 247.74849569917927
247.82784880050505, 247.77373342803028
247.74861900252526, 247.78479127209593
247.32986111111111, 247.74204446811868
247.1400331439394, 247.66090593434342
247.15542140151516, 247.5812963620581
247.17104640151516, 247.50235262784096
247.2198547979798, 247.42816347064394
247.2549715909091, 247.35595703125
247.26661142676767, 247.2858023595328
247.28949652777777, 247.22841205018938
247.30397727272728, 247.22517657039143
247.31096117424244, 247.2465425741793
247.3427241161616, 247.2699554135101
247.3800505050505, 247.29608092645205
247.431305239899, 247.32251223169195
247.50473484848484, 247.3537326388889
247.5658933080808, 247.39114287405306
247.6105192550505, 247.43127071496212
247.63813920454547, 247.4730409564394
247.65995896464648, 247.5166656802399
247.69231376262627, 247.56036438604798
247.704742739899, 247.60095091540404
247.7622316919192, 247.64231672190658
247.78109217171718, 247.67686138731062
247.76041666666666, 247.70117680713386
247.55216224747474, 247.6938821811869
247.43323863636363, 247.66826961016415
247.19018308080808, 247.60954762468438
247.20730744949495, 247.5489218355429
247.24372632575756, 247.49129478377523
247.29158775252526, 247.43246429135098
247.3377525252525, 247.3770468355429
247.43899936868686, 247.3368696732954
247.42747790404042, 247.32128413036614
247.4330018939394, 247.32125453756314
247.43726325757575, 247.35213955965912
247.46456755050505, 247.38429707228536
247.5038667929293, 247.41681463068184
247.55508207070707, 247.44975142045456
247.6500946969697, 247.4887941919192
247.69041982323233, 247.52022174873738
247.7270754419192, 247.55767144097223
247.79091698232324, 247.6024108270202
247.78452493686868, 247.6458185369318
247.81597222222223, 247.68974412089645
247.82504734848484, 247.72989169034088
247.86300505050505, 247.76838206281565
247.79154829545453, 247.78606376262624
247.64161142676767, 247.77996271306816
247.38541666666666, 247.7372553661616
247.2612452651515, 247.67104640151516
247.33424084595958, 247.6147608901515
247.4242029671717, 247.5657897332702
247.43233112373738, 247.51670020517676
247.48019255050505, 247.4688486426768
247.62953756313132, 247.44859730113637
247.62350063131314, 247.44633345170456
247.6143860479798, 247.4749546243687
247.61580650252526, 247.51927477904042
247.6238952020202, 247.55548157354798
247.62898516414143, 247.58107934816917
247.6339172979798, 247.60627761994948
247.67104640151516, 247.63013435132578
247.68221275252526, 247.63671875000003
247.73997790404042, 247.65127840909093
247.83518781565655, 247.67887863005052
247.88304924242425, 247.71228397253788
247.88040561868686, 247.74434777462122
247.89354482323233, 247.77741773200756
247.91106376262627, 247.8120610400884
247.89993686868686, 247.84067234848487
247.7466066919192, 247.8487215909091
247.3203519570707, 247.79626834753788
247.24423926767676, 247.7223997790404
247.24708017676767, 247.64290364583331
247.28140782828282, 247.56802892203282
247.31786616161617, 247.4960690893308
247.32954545454547, 247.42337930082073
247.3951231060606, 247.3602775804924
247.4041587752525, 247.31747159090907
247.40692077020202, 247.3282926925505
247.41887626262627, 247.3501223169192
247.4364346590909, 247.3737916272096
247.43998579545453, 247.3936138731061
247.467132260101, 247.41227213541666
247.6505681818182, 247.45239997632575
247.64973958333334, 247.48422703598484
247.66055082070707, 247.51627604166666
247.662444760101, 247.54821654040404
247.6689946338384, 247.57948133680554
247.7143308080808, 247.61421835542927
247.72451073232324, 247.64978397253788
247.7494476010101, 247.68507339015153
247.81123737373738, 247.70515703914145
247.8253630050505, 247.7271099668561
247.8074889520202, 247.7454772332702
247.5523595328283, 247.7317165798611
247.14484690656565, 247.666198113952
247.1025883838384, 247.58973031092168
247.10846748737373, 247.512724905303
247.17120422979798, 247.4404444839015
247.21362058080808, 247.36574238478534
247.31163194444446, 247.30152600220958
247.3184974747475, 247.2404020675505
247.36446496212122, 247.21691524621212
247.37882733585857, 247.2461627998738
247.38549558080808, 247.28152619949498
247.36935763888889, 247.31413746843435
247.38924400252526, 247.34139244002526
247.43339646464648, 247.36886442550502
247.53606376262627, 247.39691840277777
247.58349116161617, 247.43004261363637
247.62117266414143, 247.46213107638889
247.65321180555554, 247.49642913510104
247.66216856060606, 247.53101325757575
247.7612452651515, 247.57999921085855
247.7605744949495, 247.6264155224116
247.76763731060606, 247.66819562815655
247.76882102272728, 247.69729028566917
247.77075441919192, 247.72069819286614
247.68722380050505, 247.72895458491163
247.22482638888889, 247.6754064078283
247.22305082070707, 247.62051669034093
247.2059264520202, 247.55110183869948
247.2393465909091, 247.48594835069446
247.30109690656565, 247.4276308001894
247.36300505050505, 247.3769038036616
247.3851404671717, 247.32870205965907
247.39464962121212, 247.29213028724746
247.40861742424244, 247.31510416666669
247.40861742424244, 247.3382999921086
247.40644728535352, 247.36336509627526
247.44661458333334, 247.3892735953283
247.48958333333334, 247.41283439867425
247.53914141414143, 247.43485144412878
247.5792692550505, 247.45911754261363
247.64366319444446, 247.49024423926767
247.66090593434345, 247.52178030303034
247.7103456439394, 247.55949633049246
247.75485321969697, 247.60304707228536
247.74238478535352, 247.6400183475379
247.75295928030303, 247.6729403409091
247.65972222222223, 247.68801294191917
247.4012784090909, 247.66576408617425
247.00820707070707, 247.58633207070707
246.99877683080808, 247.50356593276516
247.0206360479798, 247.4173522332702
247.0590672348485, 247.33037898516415
247.13703440656565, 247.25471018781562
247.19097222222223, 247.18446180555554
247.31565656565655, 247.14145359848482
247.33660827020202, 247.13336983112373
247.3309659090909, 247.17371468592174
247.33574021464648, 247.21583510890153
247.34221117424244, 247.25603199968435
247.35684974747474, 247.29325481376264
247.38348327020202, 247.3240609217172
247.4549005681818, 247.35705196496212
247.47470801767676, 247.37693339646466
247.5831360479798, 247.40774936868684
247.5986821338384, 247.44121389678025
247.59970801767676, 247.47420987215907
247.60858585858585, 247.50750670770202
247.61142676767676, 247.53932883522725
247.61036142676767, 247.56768860479795
247.61020359848484, 247.58710148358583
247.5497159090909, 247.59647747001262
247.08246527777777, 247.53389362373738
246.92925347222223, 247.45021504103536
246.90952493686868, 247.36394215593432
247.03645833333334, 247.29242621527774
247.07114109848484, 247.22489050662875
247.09789299242425, 247.16083195233583
247.14492582070707, 247.10267223011365
247.20924084595958, 247.06011284722223
247.22257733585857, 247.07762685448236
247.21721117424244, 247.11362156723487
247.21113478535352, 247.15132279829547
247.21729008838383, 247.1739267676768
247.2193023989899, 247.1924469302399
247.2260495580808, 247.20846650094697
247.24234532828282, 247.22064393939394
247.2778172348485, 247.22921598800505
247.37574968434345, 247.24836253156568
247.44057765151516, 247.27628334122477
247.46081912878788, 247.30749388415404
247.49021464646464, 247.34160945391415
247.5177556818182, 247.3789161142677
247.55606849747474, 247.42016848169195
247.57824337121212, 247.46215573705808
247.53444602272728, 247.49423433554293
247.2198547979798, 247.47474747474752
246.8734217171717, 247.40385298295456
246.87882733585857, 247.3311040088384
246.8900331439394, 247.25608132102275
246.954742739899, 247.18570470328285
247.0093907828283, 247.11736998895202
247.08664772727272, 247.0559205334596
247.17487373737373, 247.0109739977904
247.15715751262627, 247.00313683712122
247.17286142676767, 247.0405668008207
247.1606297348485, 247.07579210069446
247.17668876262627, 247.1116240530303
247.19010416666666, 247.1410442313763
247.24830334595958, 247.1709083017677
247.40084438131314, 247.21018288352275
247.4150883838384, 247.24020971433083
247.44262941919192, 247.27589370265153
247.45355902777777, 247.31098090277777
247.47127525252526, 247.34981159248738
247.47064393939394, 247.38655598958334
247.521148989899, 247.42793659248738
247.5380366161616, 247.46415325126264
247.50430082070707, 247.4770853061869
247.31620896464648, 247.4647253787879
246.96855271464648, 247.4054657907197
246.95821496212122, 247.34354778251262
246.9961332070707, 247.2841550268308
247.07595486111111, 247.23481889204544
247.15814393939394, 247.18944326073233
247.23216540404042, 247.15120935921718
247.25378787878788, 247.1198952414773
247.27205650252526, 247.11437618371212
247.2752130681818, 247.152708727904
247.27829071969697, 247.192718197601
247.28365688131314, 247.22865865688132
247.32354797979798, 247.25960779671718
247.36336016414143, 247.2852598248106
247.4558869949495, 247.31322502367422
247.49202967171718, 247.3430052477904
247.54225852272728, 247.37678050031562
247.5674715909091, 247.41331281565655
247.5859375, 247.45176866319443
247.6109532828283, 247.49268071338383
247.64476799242425, 247.5328332149621
247.75860164141415, 247.5822383996212
247.7562342171717, 247.61978180239902
247.72739109848484, 247.64920198074495
247.3990293560606, 247.63129833491158
246.9353693181818, 247.55228555082067
246.94653566919192, 247.4723603219697
247.01594065656565, 247.39798374368686
247.08057133838383, 247.3274591619318
247.12492108585857, 247.24824909248738
247.18955176767676, 247.1774137863005
247.27860637626262, 247.12131569602272
247.27083333333334, 247.10529119318178
247.27517361111111, 247.14776672979795
247.263336489899, 247.18736683238637
247.26862373737373, 247.21895221748736
247.28274936868686, 247.24422447127526
247.33502998737373, 247.27048808396464
247.415680239899, 247.2987541429924
247.5283696338384, 247.32997455018938
247.5479403409091, 247.36461292613635
247.57899305555554, 247.40259035669192
247.59410511363637, 247.44393643465912
247.6114662247475, 247.4867917455808
247.61391256313132, 247.52818714488637
247.62492108585857, 247.564423532197
247.650726010101, 247.59380425347223
247.6932212752525, 247.614410708649
247.6238557449495, 247.623900134154
247.22529987373738, 247.57968848642673
247.0038667929293, 247.5059086963384
247.04695391414143, 247.43534465751262
247.04778251262627, 247.3645784011995
247.0647490530303, 247.29455689709596
247.10243055555554, 247.22601996527777
247.26002209595958, 247.17187006786614
247.26294191919192, 247.12675583964648
247.28981218434345, 247.1348198784722
247.27852746212122, 247.16915246212122
247.27150410353536, 247.19722123579544
247.29375789141415, 247.22796815814394
247.3114741161616, 247.25880879103534
247.37010732323233, 247.29226838699495
247.4369081439394, 247.31437914299244
247.4627130681818, 247.33935053661617
247.58404356060606, 247.376129458649
247.6098484848485, 247.4175445864899
247.6416903409091, 247.4638178661616
247.64141414141415, 247.5072748974116
247.66781092171718, 247.55181699810603
247.6734532828283, 247.58973524305554
247.6791745580808, 247.6200185448232
247.6474116161616, 247.64310586332073
247.381194760101, 247.6177497632576
247.09027777777777, 247.55280342487373
247.03657670454547, 247.4771642203283
247.08285984848484, 247.40734493371212
247.16110321969697, 247.34400647095958
247.23828125, 247.28960996685606
247.33976483585857, 247.2471837515783
247.36975220959596, 247.21247632575756
247.38857323232324, 247.2133986347854
247.40100220959596, 247.25223918876264
247.4045928030303, 247.29824120107324
247.40636837121212, 247.33867976641415
247.43209438131314, 247.37255366161617
247.45659722222223, 247.39984315814394
247.47806186868686, 247.41713028724746
247.49763257575756, 247.43311533301764
247.51546717171718, 247.4489770754419
247.5283696338384, 247.4648980034722
247.631194760101, 247.49322324810603
247.68556660353536, 247.52812302714642
247.7220643939394, 247.56436927872477
247.72265625, 247.59762665719697
247.54778251262627, 247.60634173768943
247.1377840909091, 247.56136067708334
247.00639204545453, 247.4977262863005
247.02245107323233, 247.43448646622474
247.08633207070707, 247.36637863005052
247.17503156565655, 247.30256175031568
247.2479087752525, 247.2432922979798
247.3359375, 247.1949524542298
247.3533775252525, 247.17065183080805
247.35621843434345, 247.19795612373736
247.35140467171718, 247.24108270202018
247.35195707070707, 247.28227095170453
247.38040561868686, 247.31903014520202
247.40277777777777, 247.34749842171718
247.47174873737373, 247.37547841698233
247.48184974747474, 247.39371744791669
247.63652146464648, 247.4291104403409
247.64587279040404, 247.4653172348485
247.64768781565655, 247.5023526278409
247.6383759469697, 247.53815498737373
247.6461095328283, 247.5713679766414
247.6383759469697, 247.6008177477904
247.66863952020202, 247.62542909564394
247.64835858585857, 247.64624270044192
247.54146938131314, 247.63436119002526
247.06123737373738, 247.56128176294195
246.99743529040404, 247.4800001972854
247.02245107323233, 247.4030095880682
247.03539299242425, 247.3266700205177
247.05484532828282, 247.25372869318184
247.12109375, 247.18528547190658
247.1913667929293, 247.12816149779042
247.26306029040404, 247.0933603614268
247.27797506313132, 247.120452572601
247.2593907828283, 247.15319700915404
247.27564709595958, 247.18484651199495
247.3085542929293, 247.2189916745581
247.34114583333334, 247.25477923768938
247.50430082070707, 247.3026801215278
247.5172032828283, 247.34340968276513
247.56561710858585, 247.3812292850379
247.5981691919192, 247.4212535511364
247.62097537878788, 247.4664516256313
247.63502209595958, 247.51137350063132
247.66441761363637, 247.5558564157197
247.71212121212122, 247.60222833806816
247.80204387626262, 247.63944622001264
247.83104482323233, 247.67867641256314
247.80598958333334, 247.70872297190655
247.54233743686868, 247.70174400252523
247.15092329545453, 247.64298749210855
247.17720170454547, 247.5857599431818
247.1908538510101, 247.52656447285355
247.30429292929293, 247.4755859375
247.36158459595958, 247.42052852746212
247.3995422979798, 247.36659071180554
247.41824494949495, 247.31812263257572
247.42440025252526, 247.30338048453282
247.42941130050505, 247.33819148516415
247.43671085858585, 247.3706301294192
247.4364741161616, 247.40133266256314
247.44882417929293, 247.41939906881314
247.47912720959596, 247.43409189551767
247.61079545454547, 247.4604985400884
247.6562105429293, 247.49024423926767
247.74593592171718, 247.53043619791666
247.7807765151515, 247.57435684974746
247.81889204545453, 247.62212949810603
247.85945391414143, 247.67500197285352
247.88577178030303, 247.7296204229798
247.88182607323233, 247.77995778093432
247.8862452651515, 247.81438900726008
247.82465277777777, 247.83544428661617
247.49088541666666, 247.80356297348484
247.21385732323233, 247.73269807449495
247.2521306818182, 247.66185290404042
247.44945549242425, 247.61060310132578
247.45438762626262, 247.5566800820707
247.49869791666666, 247.5087890625
247.55930397727272, 247.46792140151516
247.6083491161616, 247.44088344381314
247.59382891414143, 247.4537513809975
247.60116792929293, 247.50216520675502
247.59738005050505, 247.54532137784088
247.59154040404042, 247.5630819917929
247.627288510101, 247.58469460227272
247.67388731060606, 247.60659327651513
247.7348879419192, 247.62854127209593
247.79095643939394, 247.6513671875
247.81881313131314, 247.67949021464648
247.85957228535352, 247.71179075915407
247.87803819444446, 247.74687302714648
247.89650410353536, 247.78499348958331
247.9525726010101, 247.825654000947
247.96835542929293, 247.86246251578285
247.96247632575756, 247.89091106376262
247.89867424242425, 247.9043757891414
247.49147727272728, 247.86345880681816
247.34686710858585, 247.79937065972223
247.38754734848484, 247.73805930397728
247.5607244318182, 247.69608684501262
247.58471433080808, 247.65010456123736
247.65108112373738, 247.61044527304293
247.70497948232324, 247.57825816761365
247.72900883838383, 247.5570499921086
247.72561553030303, 247.58631727430557
247.73307291666666, 247.63459300031568
247.73003472222223, 247.67740392203282
247.74179292929293, 247.70003748421718
247.74565972222223, 247.7201556581439
247.77888257575756, 247.73613083964642
247.8047269570707, 247.74859927398987
247.9770754419192, 247.7796075994318
247.99439709595958, 247.81320529513889
248.00461647727272, 247.84714824021464
248.05871212121212, 247.8882329150884
248.0653014520202, 247.92867148042933
248.0769807449495, 247.97008660827018
248.11631944444446, 248.01226621685606
248.13379892676767, 248.0534002130682
248.14571496212122, 248.07448015309345
248.1083096590909, 248.08871922348487
247.755523989899, 248.05758266256316
247.2801452020202, 247.96026179766415
247.27604166666666, 247.861604324495
247.46610637626262, 247.78524502840912
247.65435606060606, 247.72749960542927
247.7210779671717, 247.6759094854798
247.7349273989899, 247.6245610400884
247.79158775252526, 247.58497080176767
247.8047269570707, 247.5911211726641
247.7779356060606, 247.65334497316917
247.76747948232324, 247.71477470012624
247.75098642676767, 247.7503847064394
247.75098642676767, 247.76246350220958
247.8125394570707, 247.77389618844697
247.93651357323233, 247.79909446022725
247.94716698232324, 247.81854186395202
247.94842960858585, 247.83650469539143
247.95466382575756, 247.85859572285355
247.94846906565655, 247.8812194207702
247.95225694444446, 247.9063782354798
247.97518150252526, 247.93440261994948
247.9788904671717, 247.95519649621212
247.989898989899, 247.96186967329547
247.99084595959596, 247.96732954545456
247.9346985479798, 247.9656131628788
247.52268781565655, 247.91161616161614
247.20300662878788, 247.81843335700756
247.28223642676767, 247.73468079229798
247.4754971590909, 247.6722202493687
247.62428977272728, 247.62789516256314
247.73192866161617, 247.5956488715278
247.79296875, 247.5709142203283
247.7566682449495, 247.54866043244948
247.75217013888889, 247.57734572285352
247.72861426767676, 247.6430466777146
247.7232481060606, 247.69817313762624
247.73563762626262, 247.7306906960227
247.75378787878788, 247.7468779592803
247.80673926767676, 247.75622928503788
247.82820391414143, 247.76063368055554
247.86122948232324, 247.77370383522725
247.90995896464648, 247.79342743844697
247.97774621212122, 247.82456893150254
248.03377525252526, 247.8633848248106
248.0340909090909, 247.90069148516415
248.04304766414143, 247.93684895833334
248.0619476010101, 247.96875
248.07185132575756, 247.99920592645202
248.07039141414143, 248.02535116792927
248.02935606060606, 248.04027580492422
247.5663667929293, 247.98885337752523
247.18390940656565, 247.88262014678028
247.2616792929293, 247.7860686947601
247.29596748737373, 247.69268367266415
247.47186710858585, 247.61892361111111
247.47593118686868, 247.54443359375
247.5077730429293, 247.47410629734847
247.56616950757575, 247.4162079782197
247.54924242424244, 247.41406743213383
247.5551609848485, 247.4604738794192
247.55437184343435, 247.49706044823236
247.55232007575756, 247.5291045217803
247.57997948232324, 247.5426185684975
247.59382891414143, 247.55735578440658
247.65585542929293, 247.57586608270202
247.71385732323233, 247.5943270596591
247.74538352272728, 247.6188446969697
247.74597537878788, 247.64269649621212
247.79486268939394, 247.6727578519571
247.83333333333334, 247.70788450915407
247.85621843434345, 247.74241437815658
247.8611900252525, 247.77583451704544
247.8583491161616, 247.801146227904
247.91804766414143, 247.82667002051767
248.00587910353536, 247.85923196811868
247.81652462121212, 247.8680506234217
247.31545928030303, 247.80812519728534
247.1362058080808, 247.7209842566288
247.23409880050505, 247.643219302399
247.35018150252526, 247.57934323705808
247.478851010101, 247.5319059738005
247.51132417929293, 247.4810655381944
247.52434501262627, 247.4208737768308
247.53823390151516, 247.3860874368687
247.54466540404042, 247.41473820233588
247.53941761363637, 247.4651396780303
247.53578756313132, 247.50285077335863
247.53495896464648, 247.52594795612373
247.53543244949495, 247.53302063604798
247.57378472222223, 247.54082820391415
247.74704071969697, 247.56866516729798
247.81048768939394, 247.60269689078282
247.83001893939394, 247.63836608270202
247.86758207070707, 247.67938663983588
247.87973484848484, 247.72238005050508
247.87196180555554, 247.7645054056187
247.8716461489899, 247.80653211805554
247.90084438131314, 247.84741457544192
247.89098011363637, 247.86540699968435
247.8671875, 247.8724944760101
247.42838541666666, 247.8222902856692
247.12511837121212, 247.72948232323233
247.21022727272728, 247.64579387626262
247.32950599747474, 247.5779869002525
247.50378787878788, 247.53200461647725
247.51755839646464, 247.48409386837125
247.52193813131314, 247.43796362058083
247.52872474747474, 247.39565577651516
247.5335779671717, 247.4088048453283
247.5206360479798, 247.45824455492425
247.50307765151516, 247.49485085227272
247.49597537878788, 247.51565952493684
247.52304292929293, 247.51806640625
247.5267518939394, 247.51921559343435
247.55338541666666, 247.52314650410355
247.5775331439394, 247.52924755366163
247.60898042929293, 247.5386728614268
247.63162878787878, 247.55254695391415
247.69337910353536, 247.57633463541666
247.73003472222223, 247.60559205334593
247.73449337121212, 247.63202335858585
247.76878156565655, 247.6622770675505
247.79651988636363, 247.69266887626264
247.7690183080808, 247.7166045217803
247.41650883838383, 247.69254557291669
246.86079545454547, 247.59619140625
246.86004577020202, 247.49202473958334
246.9513099747475, 247.39468414614902
247.08345170454547, 247.31330393781568
247.12535511363637, 247.23287563131316
247.13916508838383, 247.1507062815657
247.1934974747475, 247.078766177399
247.19381313131314, 247.05092921401516
247.19231376262627, 247.0923690025253
247.22115688131314, 247.13750789141417
247.2176846590909, 247.1708047269571
247.212555239899, 247.1869426688763
247.23070549242425, 247.20011146622477
247.2593907828283, 247.2151396780303
247.30078125, 247.2285501499369
247.3207859848485, 247.24442175662875
247.3414220328283, 247.26306029040404
247.36186079545453, 247.2806482796717
247.46855271464648, 247.31200678661614
247.53448547979798, 247.35224806660352
247.54202178030303, 247.39116260258837
247.57406092171718, 247.43049636994948
247.5838462752525, 247.46587949810603
247.5825441919192, 247.49859927398987
247.27438446969697, 247.49021957859847
246.7924163510101, 247.41903902304293
246.81313131313132, 247.33711134785358
246.91528566919192, 247.2597113715278
246.9782196969697, 247.18923611111114
247.09169823232324, 247.1289407749369
247.21180555555554, 247.08243568497477
247.2533143939394, 247.0412819602273
247.23958333333334, 247.03693181818184
247.2260101010101, 247.0911310369318
247.2153961489899, 247.14141414141415
247.21630366161617, 247.17904139046718
247.25248579545453, 247.21332465277777
247.26826862373738, 247.23539595170453
247.31001420454547, 247.2476720328283
247.47001262626262, 247.27475931186868
247.47502367424244, 247.30418935448233
247.49467329545453, 247.33777225378788
247.50812815656565, 247.37436375473484
247.52083333333334, 247.41242996369948
247.5284090909091, 247.4469203756313
247.5450994318182, 247.4815242266414
247.5797032828283, 247.51523536142673
247.60617897727272, 247.53225615530303
247.49601483585857, 247.53488005050505
247.0888178661616, 247.48414812184345
247.0005523989899, 247.42070115214648
247.02387152777777, 247.35858092645202
247.07540246212122, 247.30195509785352
247.16497001262627, 247.25443892045456
247.2417140151515, 247.21219026199495
247.3966619318182, 247.18600063131316
247.37851167929293, 247.17131273674244
247.37152777777777, 247.20665147569446
247.34564393939394, 247.24978791824495
247.34126420454547, 247.2894620028409
247.3526278409091, 247.3241151751894
247.3910984848485, 247.35238123421718
247.4642913510101, 247.3802034011995
247.46953914141415, 247.389313052399
247.5479008838384, 247.41048670296718
247.5569365530303, 247.43366279987373
247.59023832070707, 247.46423709753788
247.6025883838384, 247.49690261994948
247.64247948232324, 247.53313407512627
247.7644807449495, 247.57980685763889
247.75327493686868, 247.61592980587122
247.68986742424244, 247.64347084122474
247.19890309343435, 247.59984611742425
247.00236742424244, 247.53052497632578
246.97983743686868, 247.454224865846
247.0033933080808, 247.37932548137627
247.10144412878788, 247.31169606218435
247.15250157828282, 247.235198666351
247.18529040404042, 247.16420059974746
247.23654513888889, 247.10753531407832
247.2522490530303, 247.11420355902777
247.2393465909091, 247.1438259548611
247.23658459595958, 247.17591934974746
247.25954861111111, 247.20793876262624
247.28365688131314, 247.23071535669192
247.3348721590909, 247.25351167929293
247.3950047348485, 247.27972597064397
247.5340119949495, 247.3169093276515
247.53606376262627, 247.352386166351
247.53278882575756, 247.38906644570707
247.53259154040404, 247.42606731376264
247.55993529040404, 247.46361564867425
247.57267992424244, 247.49974352904042
247.59059343434345, 247.53170868844697
247.59252683080808, 247.55639895044192
247.51408617424244, 247.55390822285355
247.04959753787878, 247.4930999447601
246.7476720328283, 247.39496034564394
246.81052714646464, 247.3047022964015
246.92897727272728, 247.22583254419195
246.9659090909091, 247.14998619002526
246.98816287878788, 247.07468237058077
247.02205650252526, 247.00337357954544
247.05543718434345, 246.94604245580805
247.10175978535352, 246.95256273674244
247.11817392676767, 246.99887547348484
247.11754261363637, 247.03725240688135
247.12649936868686, 247.06194266887627
247.15696022727272, 247.08582406092174
247.21188446969697, 247.11378925978536
247.3202730429293, 247.15106632733588
247.35392992424244, 247.18837791982324
247.37259311868686, 247.2222320864899
247.40194917929293, 247.25770399305554
247.40928819444446, 247.29417219065658
247.4013178661616, 247.32852450284088
247.4134706439394, 247.36058830492425
247.4307922979798, 247.38795178345958
247.45383522727272, 247.40464705650257
247.45052083333334, 247.4167209201389
247.1216461489899, 247.38535254892676
246.58783143939394, 247.28358783143938
246.58940972222223, 247.1811030224116
246.68004261363637, 247.09094361584596
246.7349668560606, 247.0061306423611
246.8783143939394, 246.93707090435606
246.98019255050505, 246.87786556976008
247.02264835858585, 246.82438151041669
247.02150410353536, 246.81186375473487
247.05058396464648, 246.8697078203914
247.04340277777777, 246.92645695233585
247.03653724747474, 246.97101878156568
247.04928188131314, 247.01030815972223
247.05985637626262, 247.03300090751264
247.09232954545453, 247.04701803188132
247.185211489899, 247.06733842329544
247.22194602272728, 247.09239366319446
247.263336489899, 247.11898772885104
247.30622632575756, 247.15184067234847
247.40885416666666, 247.1983802872475
247.4169034090909, 247.24433297821972
247.43359375, 247.2910501499369
247.3817077020202, 247.32722241950762
247.01629577020202, 247.30610795454547
246.62294823232324, 247.23123323074495
246.65885416666666, 247.15567294034093
246.74230587121212, 247.08518288352275
246.8583096590909, 247.0163648200758
246.93371212121212, 246.95596590909088
247.05673926767676, 246.90885909880052
247.14330808080808, 246.879059146149
247.14374210858585, 246.89498993844697
247.12965593434345, 246.95832840119948
247.11781881313132, 247.0156989820076
247.11474116161617, 247.06225339330808
247.12247474747474, 247.0952740293561
247.17148042929293, 247.12499506786617
247.1897490530303, 247.14162129103536
247.22624684343435, 247.15198863636363
247.34939236111111, 247.1776949179293
247.35862531565655, 247.20631609059345
247.36706912878788, 247.23747238005052
247.3693181818182, 247.26929450757578
247.3767755681818, 247.30108211016415
247.38107638888889, 247.32728160511365
247.3465514520202, 247.34688190498736
246.8236663510101, 247.29655934343435
246.42432133838383, 247.18092546559342
246.43106849747474, 247.06498086332073
246.54324494949495, 246.9620028409091
246.64658301767676, 246.8716609453914
246.70576862373738, 246.78778507733585
246.75149936868686, 246.7090879498106
246.80377998737373, 246.6412415167298
246.79805871212122, 246.63804056186868
246.79091698232324, 246.68386501736111
246.78381470959596, 246.72795829387627
246.79395517676767, 246.7592970722854
246.8025568181818, 246.77879379734847
246.828125, 246.79408834438132
246.86355744949495, 246.8080956044823
246.9681581439394, 246.82864287405303
247.06995738636363, 246.86263020833331
247.12752525252526, 246.9047062421086
247.12981376262627, 246.94795612373736
247.14374210858585, 246.99167949021464
247.18836805555554, 247.03990589488637
247.19716698232324, 247.0860361426768
247.1796875, 247.1255523989899
246.8197995580808, 247.10700757575762
246.43501420454547, 247.0276396780303
246.33960700757575, 246.92914989741163
246.39480744949495, 246.8372741082702
246.4424715909091, 246.7496152935606
246.49921085858585, 246.66347064393938
246.5323547979798, 246.58036912089648
246.59015940656565, 246.50667810921718
246.62815656565655, 246.48272273516415
246.63095801767676, 246.50721571180554
246.63865214646464, 246.54459635416666
246.64101957070707, 246.5753728693182
246.66445707070707, 246.60312105429296
246.72916666666666, 246.63186553030306
246.7829071969697, 246.6631845801768
246.83897569444446, 246.6942866161616
246.9151672979798, 246.73016295770202
246.93158143939394, 246.76774088541663
246.9419586489899, 246.80565419823233
246.9861505681818, 246.84879557291666
247.01092960858585, 246.8921046401515
246.94839015151516, 246.9195075757576
246.53251262626262, 246.8882082544192
246.16524621212122, 246.8039920691288
246.17286142676767, 246.71120383522728
246.2640467171717, 246.62776199494948
246.3677398989899, 246.55598465119948
246.4469696969697, 246.488587042298
246.48520359848484, 246.42287129103534
246.61091382575756, 246.38068675031565
246.6893150252525, 246.40028705018938
246.68272569444446, 246.4649719854798
246.6796875, 246.52832524463383
246.68185763888889, 246.58055160984847
246.71050347222223, 246.6233970565025
246.7403724747475, 246.66007240372477
246.76290246212122, 246.6947847616793
246.89389993686868, 246.7301580255682
246.94570707070707, 246.76220703125003
246.99869791666666, 246.80170355902777
247.0361821338384, 246.8462653882576
246.97593118686868, 246.88302458175505
246.5301057449495, 246.86047486584593
246.00007891414143, 246.76793817077018
246.0073390151515, 246.67349273989896
246.11182133838383, 246.57573291508837
246.3533380681818, 246.50168678977272
246.65380366161617, 246.45857500789143
246.74798768939394, 246.42255070233585
246.80642361111111, 246.40136225536617
246.82449494949495, 246.43816090593435
246.83242582070707, 246.54220426925505
246.83948863636363, 246.64622297190658
246.90613162878788, 246.7455117582071
247.00773358585857, 246.82731119791669
247.0619081439394, 246.8783242582071
247.19890309343435, 246.93468868371215
247.23922821969697, 246.98878925978536
247.2784880050505, 247.04553839172982
247.15940656565655, 247.0864109848485
246.64780618686868, 247.0624506786616
246.6395596590909, 247.0291291824495
246.66185290404042, 246.98589409722223
246.85231218434345, 246.95969460227272
247.03949652777777, 246.93976878156568
247.07930871212122, 246.9197788431187
247.13944128787878, 246.90239800347223
247.15044981060606, 246.9012784090909
247.1785432449495, 246.96762054135098
247.23086332070707, 247.04153349905303
247.33637152777777, 247.1258483270202
247.4793244949495, 247.20422486584596
247.5737058080808, 247.27100102588383
247.58230744949495, 247.33387586805554
247.57575757575756, 247.3884154040404
247.5658143939394, 247.44033597695707
247.25078914141415, 247.44936671401516
246.86979166666666, 247.4042327572601
246.90794665404042, 247.35067964804296
247.05220170454547, 247.29728929924244
247.10688920454547, 247.23893722380052
247.23914930555554, 247.19604245580808
247.26041666666666, 247.15662484217174
247.25260416666666, 247.11747356376264
247.26029829545453, 247.1186622080177
247.26100852272728, 247.16756431502526
247.2706360479798, 247.21290048926767
247.27260890151516, 247.24045138888889
247.33905460858585, 247.26947206439394
247.50698390151516, 247.3029513888889
247.55314867424244, 247.33954288983588
247.55772569444446, 247.37768308080808
247.5591461489899, 247.4150390625
247.53543244949495, 247.44934205334593
246.96223958333334, 247.41079249526513
246.52367424242425, 247.31717566287878
246.6412168560606, 247.2299459438131
246.7863005050505, 247.13986051925505
246.85641571969697, 247.05276889993686
246.96192392676767, 246.97829367897728
247.01767676767676, 246.91061000631314
247.51732165404042, 30.939665206755052
247.25706281565655, 61.846798058712125
246.9335542929293, 92.71349234532829
246.90530303030303, 123.57665522411617
246.93114741161617, 154.4430486505682
246.9463778409091, 185.3113458806818
246.97344539141415, 216.18302655460857
246.99435763888889, 247.0573212594697
247.0396543560606, 246.9976128472222
247.07595486111111, 246.97497435290404
247.08167613636363, 246.99348958333331
247.08862058080808, 247.01640427714645
247.09958964646464, 247.0374595565025
247.13699494949495, 247.06128669507575
247.1814630681818, 247.0872889046717
247.25528724747474, 247.11990510574495
247.2656644570707, 247.14815636837122
247.32461332070707, 247.17923867582073
247.353851010101, 247.21326053503788
247.35965119949495, 247.24713936237373
247.37622316919192, 247.28171855271464
247.4258207070707, 247.3178217724116
247.45793876262627, 247.35238123421718
247.48907039141415, 247.38160412720958
247.5054845328283, 247.41158163667927
247.4698547979798, 247.42973682133834
247.17372948232324, 247.40722163036617
246.98753156565655, 247.36070667613635
246.95951704545453, 247.3086184106692
247.00027619949495, 247.25542534722223
247.1020754419192, 247.2109424321338
247.11020359848484, 247.16358408301767
247.10973011363637, 247.11411478061865
247.12630208333334, 247.07117069128785
247.1289457070707, 247.06557271938127
247.1388494318182, 247.0844874526515
247.14216382575756, 247.10731830018938
247.1422032828283, 247.12505918560606
247.16047190656565, 247.13235874368686
247.23062657828282, 247.1474116161616
247.2950994318182, 247.17058278093432
247.32780934343435, 247.195771188447
247.34528882575756, 247.22281407828285
247.3705018939394, 247.25177063604798
247.36426767676767, 247.27953361742425
247.41552241161617, 247.31369850852275
247.4223879419192, 247.34643801294192
247.44606218434345, 247.3733674636995
247.44294507575756, 247.3918481691919
247.34883996212122, 247.39447699652777
246.9916745580808, 247.3502752130682
246.90688131313132, 247.29232264046718
246.947601010101, 247.24023930713383
247.0151515151515, 247.19019294507575
247.0719696969697, 247.14639066445707
247.12480271464648, 247.10623323074495
247.19120896464648, 247.07476621685606
247.18895991161617, 247.05478121054293
247.19022253787878, 247.07959970801767
247.17716224747474, 247.1133848248106
247.2438446969697, 247.1504152856692
247.24593592171718, 247.1792633364899
247.24652777777777, 247.2010830965909
247.24779040404042, 247.21645655776516
247.26964962121212, 247.22626163983585
247.30318813131314, 247.24054016729798
247.36367582070707, 247.26222182765156
247.40108112373738, 247.29021168718438
247.43714488636363, 247.3143742108586
247.4932528409091, 247.34528882575756
247.45442708333334, 247.371276238952
247.18383049242425, 247.36328125
246.943023989899, 247.32245304608585
246.94803503787878, 247.27805890940658
247.0034327651515, 247.23302852746212
247.07848011363637, 247.19270340119948
247.11497790404042, 247.1524325284091
247.15313289141415, 247.10991753472223
247.17578125, 247.07508680555554
247.19219539141415, 247.07613241792927
247.1846985479798, 247.10634173768938
247.19006470959596, 247.13659544665404
247.21515940656565, 247.1630612768308
247.21886837121212, 247.18060980902777
247.2773042929293, 247.2009006076389
247.28381470959596, 247.2172358349116
247.30216224747474, 247.23303345959596
247.35345643939394, 247.25319109059342
247.39918718434345, 247.28000217013889
247.41946811868686, 247.30867759627526
247.51712436868686, 247.3464232165404
247.51534880050505, 247.38348327020202
247.4090909090909, 247.39995659722223
246.9620422979798, 247.3597350457702
246.79056186868686, 247.2957849984217
246.80551609848484, 247.22729245580805
246.81932607323233, 247.15480981691917
246.9044744318182, 247.0904356060606
246.92388731060606, 247.0162809738005
246.94132733585857, 246.94452829071972
246.96800031565655, 246.88939196654042
246.99368686868686, 246.89334753787878
247.0011047979798, 246.91966540404042
246.99479166666666, 246.94332485006314
246.9994081439394, 246.96583510890153
247.01708491161617, 246.9799114188763
247.04198232323233, 246.99467329545456
247.1591303661616, 247.02189867424244
247.18185763888889, 247.04863083964645
247.1903409090909, 247.07321259469697
247.22234059343435, 247.1008670691288
247.23626893939394, 247.13105172821972
247.24992108585857, 247.16236584595964
247.26988636363637, 247.19396602746212
247.26649305555554, 247.22202986900254
247.20458491161617, 247.22771168718435
246.7841303661616, 247.17799577809342
246.54513888888889, 247.0973455255682
246.5140467171717, 247.00880879103534
246.5112058080808, 246.9181758996212
246.60077335858585, 246.83703243371215
246.6049163510101, 246.75391118213386
246.619476010101, 246.67303405145202
246.65214646464648, 246.6039792455808
246.69168244949495, 246.59242325599746
246.7007970328283, 246.6118805239899
246.70458491161617, 246.63569779829544
246.71835542929293, 246.66159150094694
246.7755287247475, 246.68343592171718
246.8096196338384, 246.7090238320707
246.88691603535352, 246.74245383522728
246.94669349747474, 246.77927221433083
247.0084043560606, 246.81886245265153
247.0323942550505, 246.8603121054293
247.06885258838383, 246.90584556502526
247.0764678030303, 246.95060961174244
247.06660353535352, 246.9869939630682
247.07713857323233, 247.02043383049244
247.08992266414143, 247.0458096590909
247.08629261363637, 247.0632595486111
246.92885890151516, 247.05331636679293
246.490569760101, 246.98558830492425
246.39883207070707, 246.90183574021466
246.45044191919192, 246.82358250473484
246.47502367424244, 246.749635022096
246.49585700757575, 246.6769748263889
246.50185448232324, 246.60346630366163
246.55314867424244, 246.53682331123738
246.59517045454547, 246.4951122553662
246.5888178661616, 246.50739326862376
246.6416903409091, 246.537750552399
246.6551057449495, 246.56333353061868
246.6712831439394, 246.5878659643308
246.6740056818182, 246.61013454861111
246.7153961489899, 246.63682725694446
246.7818023989899, 246.66540897253788
246.85018150252526, 246.69728535353534
246.94539141414143, 246.7418570470328
246.96961805555554, 246.78284801136363
246.96740845959596, 246.8218858506944
246.98188920454547, 246.8607116082702
247.01763731060606, 246.9036655618687
247.05220170454547, 246.94576625631314
247.05153093434345, 246.9794823232323
247.06680082070707, 247.00655973800508
247.06680082070707, 247.02173591382578
246.93402777777777, 247.01728712910358
246.55764678030303, 246.96606691919195
246.45375631313132, 246.90005030776516
246.49877683080808, 246.83519274779042
246.55504261363637, 246.7730478614268
246.5552004419192, 246.71100654987373
246.56881313131314, 246.64875808869948
246.61474116161617, 246.59225063131314
246.63999368686868, 246.5554963699495
246.64232165404042, 246.56608072916666
246.66339172979798, 246.59228515624997
246.68623737373738, 246.61571772411617
246.7244318181818, 246.63689137468432
246.76692708333334, 246.66335720486111
246.9197837752525, 246.70722853535352
246.9331202651515, 246.74702592329544
246.94266887626262, 246.78486032196966
246.95213857323233, 246.82358743686868
246.96689551767676, 246.86152541035352
247.0312105429293, 246.9046470565025
247.14050662878788, 246.9566564078283
247.17223011363637, 247.00731928661617
247.169586489899, 247.03854462594697
247.13746843434345, 247.06408814709596
246.82331123737373, 247.04916844223487
246.52596275252526, 246.99589646464645
246.48074494949495, 246.93512764362373
246.5151515151515, 246.8706202651515
246.541351010101, 246.79572581281562
246.5769807449495, 246.7213196417298
246.59777462121212, 246.64984315814394
246.63273358585857, 246.58675130208331
246.6372316919192, 246.5634913589015
246.64543876262627, 246.57842586016415
246.62705176767676, 246.59671421243686
246.64129577020202, 246.6124822443182
246.67112531565655, 246.62870403251262
246.70052083333334, 246.6441465435606
246.77103061868686, 246.66580354324495
246.85239109848484, 246.6932607323232
246.91252367424244, 246.72767223011363
246.92440025252526, 246.762542416351
246.9302004419192, 246.8004360006313
246.94783775252526, 246.8387537484217
247.03002683080808, 246.88361643781565
247.0323547979798, 246.92509568339648
247.03665561868686, 246.95829880839648
247.00019728535352, 246.97677458175505
246.60570549242425, 246.93842230902777
246.35538983585857, 246.86729600694446
246.35065498737373, 246.79485282512627
246.3721985479798, 246.72289792455808
246.44041982323233, 246.6491970486111
246.4620817550505, 246.57791291824495
246.47691761363637, 246.50794566761363
246.49826388888889, 246.44520399305557
246.51570391414143, 246.43395379577018
246.51933396464648, 246.45444681186868
246.53318339646464, 246.47726286300502
246.55050505050505, 246.4995511758207
246.58672664141415, 246.51783952809345
246.60866477272728, 246.53616240530303
246.64307133838383, 246.55693162089645
246.74925031565655, 246.58830492424244
246.7672032828283, 246.6197423453283
246.78839172979798, 246.6533745659722
246.81155303030303, 246.688170770202
246.83376736111111, 246.72357855902777
246.8460779671717, 246.75599747474746
246.86284722222223, 246.78777028093435
246.8733428030303, 246.81655421401516
246.8700678661616, 246.83165640782826
246.71188446969697, 246.82474155618686
246.30204387626262, 246.76394807449495
246.1746369949495, 246.68433357007575
246.19041982323233, 246.6039151278409
246.22506313131314, 246.52628827335857
246.29770359848484, 246.4556453203914
246.36497790404042, 246.39209970801767
246.48125789141415, 246.34349846117422
246.4972380050505, 246.31666765309345
246.5140467171717, 246.3431680082071
246.55326704545453, 246.3904967645202
246.54438920454547, 246.43474293718435
246.5909090909091, 246.48047368213383
246.61126893939394, 246.5196693497475
246.67250631313132, 246.55811040088383
246.73338857323233, 246.58962673611111
246.7645202020202, 246.62303701073233
246.7957307449495, 246.65824751420453
246.80445075757575, 246.6896454782197
246.83613478535352, 246.7261136758207
246.8677793560606, 246.76072245896464
246.89212436868686, 246.79582938762624
246.9275568181818, 246.82771070075756
246.94444444444446, 246.85409268465907
246.92148042929293, 246.8737127130682
246.74187184343435, 246.86698035037878
246.33566130050505, 246.80838166824492
246.31048768939394, 246.74267578125003
246.33976483585857, 246.67667396622477
246.3527067550505, 246.60924676452024
246.3778409090909, 246.5405322758839
246.41714015151516, 246.47461923926772
246.63577178030303, 246.43890565814394
246.64370265151516, 246.42663450915404
246.64161142676767, 246.46487827493686
246.64050662878788, 246.50613064236114
246.64977904040404, 246.54488241792933
246.64926609848484, 246.58195233585857
246.65601325757575, 246.61672387941917
246.67751736111111, 246.64927103061868
246.7169349747475, 246.65941642992425
246.76688762626262, 246.6748145517677
246.8515625, 246.70105843592174
246.89591224747474, 246.7329841382576
246.9480744949495, 246.77027107007575
246.96973642676767, 246.81032986111111
246.99262152777777, 246.85240589488637
246.99565972222223, 246.89217369002526
247.01377051767676, 246.9292781328914
246.99439709595958, 246.95771681660352
246.82504734848484, 246.95440242266412
246.49289772727272, 246.90402560763886
246.43544823232324, 246.83994732481062
246.4581360479798, 246.77599727746212
246.5296717171717, 246.71812855113637
246.56605113636363, 246.66442747790404
246.6255918560606, 246.61590514520202
246.68529040404042, 246.5772668087121
246.68434343434345, 246.55967881944443
246.69456281565655, 246.5848869554924
246.7143702651515, 246.61975220959596
246.7405303030303, 246.65505149147728
246.7913115530303, 246.68775647095958
246.81605113636363, 246.71900647095958
246.81778724747474, 246.74303089488637
246.85325915404042, 246.76402698863635
246.8460779671717, 246.7842438052399
246.8616240530303, 246.80512645991163
246.88517992424244, 246.826477667298
246.88450915404042, 246.84447502367425
246.89973958333334, 246.85802852746212
246.96800031565655, 246.87702217487373
246.98267834595958, 246.89763356218435
246.97060448232324, 246.91230172821972
246.65269886363637, 246.88812934027777
246.4307528409091, 246.83427043876264
246.40751262626262, 246.77456202651516
246.43221275252526, 246.71802497632572
246.4693023989899, 246.6642203282828
246.5513731060606, 246.61214192708331
246.59446022727272, 246.56361466224746
246.70837279040404, 246.53083570075756
246.72916666666666, 246.54039417613635
246.70580808080808, 246.57477608112373
246.71077967171718, 246.61268446180557
246.72687815656565, 246.6495176373106
246.75031565656565, 246.68464429450754
246.79363952020202, 246.71492759627523
246.85700757575756, 246.74774601483585
246.8843907828283, 246.76974826388886
246.8939788510101, 246.7903497869318
246.94507575757575, 246.8202582465278
247.01590119949495, 246.8583984375
247.02256944444446, 246.89535984848482
247.03582702020202, 246.9310487689394
247.05602904040404, 246.96384745896466
247.06664299242425, 246.99005188604795
247.04044349747474, 247.00955847537878
246.70845170454547, 246.9863675820707
246.36521464646464, 246.9138849431818
246.36864741161617, 246.832978219697
246.4150883838384, 246.7570430871212
246.47916666666666, 246.6874605429293
246.50950915404042, 246.61914555713383
246.5642755681818, 246.55634962910355
246.57571811868686, 246.49825895675505
246.609375, 246.48587436868686
246.6156092171717, 246.51717369002523
246.61111111111111, 246.5474816524621
246.58621369949495, 246.56887231691917
246.61967329545453, 246.58643564551767
246.69724589646464, 246.6099027383207
246.75311710858585, 246.63350793087122
246.78393308080808, 246.65953480113637
246.82394255050505, 246.68635574494948
246.84118529040404, 246.71455275410352
246.88553503787878, 246.7488557449495
246.91307607323233, 246.78971354166666
246.90755208333334, 246.8256983901515
246.93761837121212, 246.85574494949492
246.94570707070707, 246.8798186947601
246.9906092171717, 246.9056532118056
246.984375, 246.92570726799244
246.7104640151515, 246.90936710858585
246.28113162878788, 246.83381668244948
246.294586489899, 246.75650548453282
246.321930239899, 246.68330275410358
246.40376420454547, 246.6165709832702
246.48188920454547, 246.55859375000003
246.54588857323233, 246.5030036695076
246.63585069444446, 246.4594381313131
246.6406644570707, 246.450713186553
246.64330808080808, 246.49598524305557
246.63991477272728, 246.5391512784091
246.64050662878788, 246.5789733270202
246.64307133838383, 246.60888671875
246.64820075757575, 246.62967566287878
246.69803503787878, 246.64869397095958
246.72506313131314, 246.6598455255682
246.7299558080808, 246.67100694444443
246.79805871212122, 246.6903507733586
246.8237452651515, 246.7133295849116
246.8169586489899, 246.73538608743686
246.84627525252526, 246.76078657670453
246.8589015151515, 246.7871241714015
246.89551767676767, 246.81180950126262
246.92384785353536, 246.8366575915404
246.80437184343435, 246.8459595959596
246.38715277777777, 246.79459635416666
246.32682291666666, 246.7324810606061
246.35164141414143, 246.67431640625
246.41871843434345, 246.62087180397728
246.57911142676767, 246.5858980429293
246.58909406565655, 246.54759509154042
246.60077335858585, 246.50721077967174
246.59690656565655, 246.4812776199495
246.60002367424244, 246.5078864820076
246.59643308080808, 246.54158775252526
246.59355271464648, 246.5718266650884
246.59027777777777, 246.5932715830177
246.64283459595958, 246.60123697916666
246.73007417929293, 246.6188594933712
246.77986900252526, 246.64124644886363
246.84493371212122, 246.6722498421717
246.880523989899, 246.70731238162878
246.93714488636363, 246.74990135732327
246.9441682449495, 246.79372829861111
246.96212121212122, 246.84020872790404
246.9864662247475, 246.8831626815025
247.01412563131314, 246.91866911300508
247.0057212752525, 246.94690064709596
246.7037168560606, 246.92924854008837
246.389007260101, 246.8678089488636
246.37247474747474, 246.7972251815025
246.42720170454547, 246.73260436395202
246.48346748737373, 246.6727726483586
246.52091224747474, 246.6145784011995
246.53969381313132, 246.55527442392676
246.57354797979798, 246.50125276199498
246.58372790404042, 246.48625414299244
246.58084753787878, 246.51023417771464
246.58337279040404, 246.53659643308077
246.61797664141415, 246.5604433001894
246.63020833333334, 246.57878590593435
246.64026988636363, 246.59370561079544
246.65826231060606, 246.6085266729798
246.69101167929293, 246.62320963541663
246.7127130681818, 246.63933278093432
246.75907512626262, 246.6616112294823
246.79328440656565, 246.68785018150248
246.81739267676767, 246.7127771859217
246.83664772727272, 246.73858211016412
246.84181660353536, 246.7637754498106
246.88936237373738, 246.79266295770202
246.88521938131314, 246.81693892045456
246.83629261363637, 246.83238636363637
246.3638336489899, 246.78298117897725
246.18892045454547, 246.70743568497477
246.1747159090909, 246.62710108901518
246.23816287878788, 246.55229048295456
246.25662878787878, 246.4791420059975
246.2906407828283, 246.4043018071339
246.35175978535352, 246.33761935763889
246.3872316919192, 246.28148674242422
246.39299242424244, 246.2851315893308
246.3755129419192, 246.3084556502525
246.4101167929293, 246.33788076073233
246.43604008838383, 246.3626154119318
246.45833333333334, 246.38782848011363
246.5369712752525, 246.41861979166666
246.7097932449495, 246.46337397411614
246.7209990530303, 246.50509489425502
246.7880366161616, 246.55447541824495
246.80093907828282, 246.60765368529042
246.79995265151516, 246.65638316761368
246.81324968434345, 246.7035343671086
246.82122001262627, 246.74889520202024
246.80232007575756, 246.78206380208331
246.82382417929293, 246.79631766887624
246.8544034090909, 246.81299321338383
246.849944760101, 246.82073173137624
246.66236584595958, 246.80341007733585
246.25986426767676, 246.73589902935603
246.1707702020202, 246.65558909406565
246.20217803030303, 246.57820884627523
246.2997159090909, 246.51538332544192
246.3526672979798, 246.45648871527777
246.4520991161616, 246.40620067866166
246.48315183080808, 246.36035156250003
246.4642913510101, 246.33559225063132
246.46519886363637, 246.36125907512627
246.46077967171718, 246.39751025883837
246.46831597222223, 246.43077750157826
246.5267913510101, 246.45916193181816
246.55654198232324, 246.48464626736111
246.59394728535352, 246.50237728851013
246.66236584595958, 246.52477904040407
246.72415561868686, 246.55726207386365
246.74262152777777, 246.5919399068813
246.7880366161616, 246.63284702493686
246.81486742424244, 246.6761659564394
246.806305239899, 246.71110519255052
246.90648674242425, 246.75484828756316
246.9095643939394, 246.7943004261364
246.72790404040404, 246.80249270044197
246.28712910353536, 246.74786438604798
246.21630366161617, 246.68207465277777
246.23394097222223, 246.61281269728534
246.27884311868686, 246.5458096590909
246.3481691919192, 246.48854265309342
246.40297506313132, 246.4256036931818
246.4677241161616, 246.3703736584596
246.48914930555554, 246.34052931660352
246.48859690656565, 246.3657127919823
246.48516414141415, 246.39932035195704
246.4899384469697, 246.4313200363005
246.49514678030303, 246.4583579940025
246.51641414141415, 246.47938861268938
246.60345643939394, 246.50444878472223
246.6127288510101, 246.5225743765783
246.65814393939394, 246.54369870580808
246.71756628787878, 246.57231987847223
246.73283617424244, 246.60327888257578
246.75071022727272, 246.63587535511365
246.75907512626262, 246.6688663983586
246.7989662247475, 246.70418540877526
246.85665246212122, 246.73583491161617
246.85057607323233, 246.76556581439397
246.69440498737373, 246.77009844539143
246.26369160353536, 246.71336410984847
246.03815498737373, 246.6265289614899
246.06321022727272, 246.5405914614899
246.21583017676767, 246.47268584280303
246.23642676767676, 246.40236841066917
246.24293718434345, 246.32565400094697
246.26637468434345, 246.25262882733585
246.29872948232324, 246.20316938920456
246.29892676767676, 246.20757378472223
246.30890940656565, 246.24141808712122
246.31115845959596, 246.2724116161616
246.31597222222223, 246.28492937184342
246.34955018939394, 246.29906979955808
246.43655303030303, 246.323271780303
246.5145991161616, 246.3542998342803
246.54221906565655, 246.38473603219697
246.58976483585857, 246.42109079071972
246.61785827020202, 246.45970939867425
246.66473327020202, 246.50390625000003
246.67783301767676, 246.54913884943184
246.69827178030303, 246.59272904829544
246.69929766414143, 246.62557212752523
246.72364267676767, 246.65170257260098
246.7243134469697, 246.67446437026516
246.67771464646464, 246.6854580965909
246.36186079545453, 246.6534584122475
246.04308712121212, 246.57575264362373
246.06893150252526, 246.4996399542298
246.11008522727272, 246.426116635101
246.20612373737373, 246.36446989425502
246.2432528409091, 246.3044211647727
246.2550110479798, 246.24575836489896
246.3003077651515, 246.19858250473482
246.3677398989899, 246.19931739267673
246.37791982323233, 246.24117148042927
246.37014678030303, 246.2788233901515
246.38478535353536, 246.31316090593432
246.39551767676767, 246.33683514835857
246.39468907828282, 246.3557646780303
246.4145359848485, 246.37570529513889
246.43785511363637, 246.39289871369948
246.46472537878788, 246.40502189867425
246.51392834595958, 246.42202296401516
246.55591066919192, 246.44524345012627
246.59730113636363, 246.4718079229798
246.6226720328283, 246.50020221748736
246.66654829545453, 246.53418461963383
246.68489583333334, 246.56797960069443
246.66595643939394, 246.59649226641412
246.45233585858585, 246.59494357638889
246.1233428030303, 246.54612038352272
246.11312342171718, 246.49077197758837
246.19053819444446, 246.4399266098485
246.28764204545453, 246.39804786142673
246.30547664141415, 246.35291390467168
246.4330413510101, 246.32143209438132
246.4559264520202, 246.29517834595958
246.44539141414143, 246.29431029040404
246.4434974747475, 246.33432962436868
246.44266887626262, 246.3755228061869
246.45971433080808, 246.40916982323233
246.47013099747474, 246.43198094223487
246.47778566919192, 246.45351957070707
246.55338541666666, 246.46856257891415
246.56624842171718, 246.48235282512627
246.58132102272728, 246.4993440261995
246.5842803030303, 246.51694187973482
246.59063289141415, 246.53543738162875
246.5992345328283, 246.5528774068813
246.6110321969697, 246.57049005681816
246.63202335858585, 246.58976976799244
246.56388099747474, 246.59108171559348
246.14599116161617, 246.53854955808083
245.97127525252526, 246.46229383680557
246.0273832070707, 246.3926816998106
246.07015467171718, 246.32762192234847
246.1846985479798, 246.27580492424238
246.24901357323233, 246.23055259627523
246.30587121212122, 246.18978357796718
246.31605113636363, 246.1588048453283
246.30835700757575, 246.17910057607324
246.30851483585857, 246.22125552398992
246.3125, 246.2568951231061
246.3180634469697, 246.28788372001264
246.36979166666666, 246.3110203598485
246.38577178030303, 246.32811513573233
246.4119318181818, 246.3413727114899
246.4560053661616, 246.35886699021464
246.51874210858585, 246.3851651278409
246.5463620580808, 246.4148960306187
246.564117739899, 246.4463482481061
246.61229482323233, 246.4831271701389
246.61355744949495, 246.51359789299244
246.7338620580808, 246.55710917771466
246.71354166666666, 246.59481040877526
246.3129734848485, 246.57693142361111
246.00272253787878, 246.51242897727272
245.9464567550505, 246.43744081439394
245.99143781565655, 246.36585582386365
246.02825126262627, 246.2928503787879
246.07346906565655, 246.22533933080808
246.4535984848485, 246.19030638415404
246.46654040404042, 246.15943122632575
246.48504577020202, 246.18094026199495
246.47975852272728, 246.240569760101
246.47486584595958, 246.30662089646464
246.48516414141415, 246.36833668718432
246.4965672348485, 246.42687618371212
246.52071496212122, 246.4827819207702
246.5892913510101, 246.49974352904042
246.6505681818182, 246.52274700126264
246.68611900252526, 246.54788115530303
246.74408143939394, 246.58092151988637
246.7678740530303, 246.6175475457702
246.79592803030303, 246.65639303188132
246.80729166666666, 246.69523358585857
246.8252840909091, 246.73330472695707
246.85010258838383, 246.76590613162878
246.842132260101, 246.78985164141412
246.6299715909091, 246.7828332149621
246.16923137626262, 246.71097695707067
246.091461489899, 246.62642538667927
246.13364109848484, 246.54363952020202
246.23283617424244, 246.47183258364902
246.23634785353536, 246.39821555397728
247.03326231060606, 246.42111051925505
248.12405303030303, 246.58135061553028
248.1261442550505, 246.76837219854798
248.1328125, 247.01381983901516
248.13435132575756, 247.26918106849746
248.13320707070707, 247.51912681502526
248.13478535353536, 247.75687046243686
248.13273358585857, 247.99391867897728
248.17207228535352, 248.13626992582073
248.1824889520202, 248.1435744160354
248.25485321969697, 248.15966303661617
248.28144728535352, 248.17824238478536
248.31435448232324, 248.2007427793561
248.31056660353536, 248.2229127209596
248.35688920454547, 248.25067570233588
248.36584595959596, 248.27981474905306
248.39429450757575, 248.3075925268308
248.31127683080808, 248.32369101167927
247.93292297979798, 248.28344973169192
247.79328440656565, 248.22242937184342
247.78701073232324, 248.15651140309342
247.84051452020202, 248.0977548926768
247.88312815656565, 248.0385347616793
247.97727272727272, 247.98996310763889
248.00185448232324, 247.94090810448233
248.06861584595958, 247.91057548137627
248.06052714646464, 247.9265260022096
248.0419034090909, 247.9576033775253
248.10278566919192, 247.99707524463386
248.09288194444446, 248.02862117266415
248.10250946969697, 248.05604383680554
248.13360164141415, 248.07558495107324
248.14756944444446, 248.0937993213384
248.22754892676767, 248.11366595643938
248.32169349747474, 248.14631175031565
248.3661616161616, 248.18684402619954
248.35973011363637, 248.21896208175508
248.40755208333334, 248.25829584911614
248.44270833333334, 248.30082070707067
248.4279119318182, 248.33760949337122
248.32686237373738, 248.36002110953282
247.89334753787878, 248.31824593592174
247.7980192550505, 248.2527866556187
247.8030303030303, 248.18239524147728
247.86111111111111, 248.12006786616163
247.89488636363637, 248.05598465119948
247.93398832070707, 247.9923946496212
247.99751420454547, 247.93859493371212
