[[249.8447758838384, 0.0], [250.13427241161617, 0.0], [250.34793244949495, 0.0], [250.51148200757575, 0.0], [249.99127998737373, 0.0], [248.37073863636363, 0.0], [247.75576073232324, 0.0], [247.90755208333334, 0.0], [248.3292297979798, 0.0], [248.50998263888889, 0.0], [248.62038352272728, 0.0], [248.67589962121212, 0.0], [248.83984375, 0.0], [249.08211016414143, 0.0], [249.44898200757575, 0.0], [249.79549400252526, 0.0], [250.0730744949495, 0.0], [250.28969381313132, 0.0], [250.025726010101, 0.0], [248.4519807449495, 0.0], [247.52252998737373, 0.0], [247.71101641414143, 0.0], [248.4541508838384, 0.0], [249.50489267676767, 0.0], [249.5870028409091, 0.0], [249.7283775252525, 0.0], [249.84284248737373, 0.0], [250.07023358585857, 0.0], [250.3404356060606, 0.0], [250.60854640151516, 0.0], [250.95947758838383, 0.0], [251.06269728535352, 0.0], [250.92988478535352, 0.0], [249.55011047979798, 0.0], [248.85570549242425, 0.0], [248.90044981060606, 0.0], [249.01092960858585, 0.0], [249.1422821969697, 0.0], [249.56952335858585, 0.0], [249.67317708333334, 0.0], [249.9229403409091, 0.0], [250.12768308080808, 0.0], [250.52099116161617, 0.0], [250.7833412247475, 0.0], [251.12357954545453, 0.0], [251.25130208333334, 0.0], [251.37748579545453, 0.0], [250.3466303661616, 0.0], [249.0903961489899, 0.0], [249.00019728535352, 0.0], [249.1032196969697, 0.0], [249.29166666666666, 0.0], [249.65557922979798, 0.0], [249.8382654671717, 0.0], [249.90530303030303, 0.0], [250.1622869318182, 0.0], [250.48907039141415, 0.0], [250.86600378787878, 0.0], [251.09244791666666, 0.0], [251.35633680555554, 0.0], [251.51444128787878, 0.0], [251.41670612373738, 0.0], [250.0645912247475, 0.0], [249.07729640151516, 0.0], [249.11971275252526, 0.0], [249.33510890151516, 0.0], [249.4804292929293, 0.0], [249.7767518939394, 0.0], [249.96657986111111, 0.0], [250.02537089646464, 0.0], [250.24782986111111, 0.0], [250.587555239899, 0.0], [250.92980587121212, 0.0], [251.12859059343435, 0.0], [251.48690025252526, 0.0], [251.72419507575756, 0.0], [251.81609059343435, 0.0], [250.74708017676767, 0.0], [249.5233980429293, 0.0], [249.4034090909091, 0.0], [249.61564867424244, 0.0], [249.7895754419192, 0.0], [250.02907986111111, 0.0], [250.12630208333334, 0.0], [250.14382102272728, 0.0], [250.27690972222223, 0.0], [250.66536458333334, 0.0], [250.8961884469697, 0.0], [251.20557133838383, 0.0], [251.46859217171718, 0.0], [251.72675978535352, 0.0], [251.73409880050505, 0.0], [250.9370265151515, 0.0], [249.4502446338384, 0.0], [249.22435290404042, 0.0], [249.35523200757575, 0.0], [249.5629734848485, 0.0], [249.72285353535352, 0.0], [249.8654119318182, 0.0], [249.85168087121212, 0.0], [249.88521938131314, 0.0], [250.03144728535352, 0.0], [250.4274384469697, 0.0], [250.63076073232324, 0.0], [250.86675347222223, 0.0], [251.1110321969697, 0.0], [250.89307133838383, 0.0], [249.45924084595958, 0.0], [248.6249605429293, 0.0], [248.70320391414143, 0.0], [248.92783301767676, 0.0], [249.07453440656565, 0.0], [249.4915956439394, 0.0], [249.7042297979798, 0.0], [249.90155460858585, 0.0], [250.15321180555554, 0.0], [250.50426136363637, 0.0], [250.8559816919192, 0.0], [251.18828914141415, 0.0], [251.41781092171718, 0.0], [251.63024779040404, 0.0], [251.36647727272728, 0.0], [249.85677083333334, 0.0], [248.97829861111111, 0.0], [249.07836174242425, 0.0], [249.36801609848484, 0.0], [249.57682291666666, 0.0], [249.90873579545453, 0.0], [250.07169349747474, 0.0], [250.2008759469697, 0.0], [250.44345801767676, 0.0], [250.81376262626262, 0.0], [251.1411379419192, 0.0], [251.38940183080808, 0.0], [251.52864583333334, 0.0], [251.5888178661616, 0.0], [250.3158143939394, 0.0], [246.60787563131314, 0.0], [245.85866477272728, 0.0], [247.50564236111111, 0.0], [249.8187342171717, 0.0], [249.93659248737373, 0.0], [250.25217013888889, 0.0], [250.3185369318182, 0.0], [250.39812184343435, 0.0], [250.69985006313132, 0.0], [251.02252998737373, 0.0], [251.23007417929293, 0.0], [251.53922032828282, 0.0], [251.64820075757575, 0.0], [251.83562184343435, 0.0], [250.77324021464648, 0.0], [248.0167692550505, 0.0], [247.9180082070707, 0.0], [249.51945233585857, 0.0], [251.4937657828283, 0.0], [251.7020596590909, 0.0], [251.79943970959596, 0.0], [251.9810606060606, 0.0], [252.31368371212122, 0.0], [252.37878787878788, 0.0], [252.14157196969697, 0.0], [252.20501893939394, 0.0], [251.98697916666666, 0.0], [249.33506944444446, 0.0], [248.18493529040404, 0.0], [248.1747553661616, 0.0], [248.34678819444446, 0.0], [248.64551767676767, 0.0], [248.90561868686868, 0.0], [248.99743529040404, 0.0], [249.26605902777777, 0.0], [249.4436553030303, 0.0], [249.80007102272728, 0.0], [250.09221117424244, 0.0], [250.40561868686868, 0.0], [250.59122474747474, 0.0], [250.28839172979798, 0.0], [248.57323232323233, 0.0], [247.7918244949495, 0.0], [247.9190735479798, 0.0], [248.82445549242425, 0.0], [250.0145991161616, 0.0], [250.27193813131314, 0.0], [250.43600063131314, 0.0], [250.51878156565655, 0.0], [250.76964962121212, 0.0], [251.0741792929293, 0.0], [251.3270202020202, 0.0], [251.66646938131314, 0.0], [251.84248737373738, 0.0], [251.79644097222223, 0.0], [250.4174163510101, 0.0], [249.1885258838384, 0.0], [247.66895517676767, 0.0], [247.8499053030303, 0.0], [249.3800110479798, 0.0], [251.30389835858585, 0.0], [251.52529198232324, 0.0], [251.6886442550505, 0.0], [251.9843355429293, 0.0], [252.34528882575756, 0.0], [252.290680239899, 0.0], [251.78657670454547, 0.0], [251.7957702020202, 0.0], [250.6260258838384, 0.0], [249.43430397727272, 0.0], [249.40388257575756, 0.0], [249.68386994949495, 0.0], [249.87969539141415, 0.0], [250.22435290404042, 0.0], [250.25607638888889, 0.0], [250.52205650252526, 0.0], [250.8901515151515, 0.0], [251.00082859848484, 0.0], [251.22747001262627, 0.0], [251.39831912878788, 0.0], [251.65747316919192, 0.0], [251.80926452020202, 0.0], [251.3246922348485, 0.0], [249.7896543560606, 0.0], [247.85452178030303, 0.0], [248.0882654671717, 0.0], [249.52272727272728, 0.0], [251.45174400252526, 0.0], [251.7025726010101, 0.0], [251.75122316919192, 0.0], [252.00019728535352, 0.0], [252.2674005681818, 0.0], [252.24617266414143, 0.0], [251.8427241161616, 0.0], [251.91500946969697, 0.0], [251.05875157828282, 0.0], [249.8387389520202, 0.0], [249.697601010101, 0.0], [249.91544349747474, 0.0], [250.130523989899, 0.0], [250.52122790404042, 0.0], [250.63024779040404, 0.0], [250.67250631313132, 0.0], [250.88529829545453, 0.0], [250.97222222222223, 0.0], [251.3042140151515, 0.0], [251.57129892676767, 0.0], [251.7919034090909, 0.0], [251.8292297979798, 0.0], [250.65636837121212, 0.0], [249.38139204545453, 0.0], [247.91055082070707, 0.0], [248.1416903409091, 0.0], [248.94775883838383, 0.0], [250.25631313131314, 0.0], [250.4062105429293, 0.0], [250.48705808080808, 0.0], [250.65550031565655, 0.0], [250.95714962121212, 0.0], [251.20020517676767, 0.0], [251.4888731060606, 0.0], [251.67305871212122, 0.0], [251.7052556818182, 0.0], [250.43067392676767, 0.0], [249.40660511363637, 0.0], [249.37361900252526, 0.0], [249.46673768939394, 0.0], [249.63821811868686, 0.0], [249.9677241161616, 0.0], [250.0752840909091, 0.0], [250.22115688131314, 0.0], [250.4481928661616, 0.0], [250.64693813131314, 0.0], [251.0317234848485, 0.0], [251.12507891414143, 0.0], [251.40198863636363, 0.0], [251.44077493686868, 0.0], [250.63257575757575, 0.0], [249.29225852272728, 0.0], [249.08858112373738, 0.0], [249.21681660353536, 0.0], [249.41654829545453, 0.0], [249.60416666666666, 0.0], [249.7177241161616, 0.0], [249.78267045454547, 0.0], [250.0095880681818, 0.0], [250.18757891414143, 0.0], [250.52829071969697, 0.0], [250.78274936868686, 0.0], [250.920257260101, 0.0], [251.03701073232324, 0.0], [250.9705255681818, 0.0], [249.78874684343435, 0.0], [248.76649305555554, 0.0], [248.8231139520202, 0.0], [249.0625, 0.0], [249.26534880050505, 0.0], [249.54517834595958, 0.0], [249.62618371212122, 0.0], [249.73792613636363, 0.0], [249.94053819444446, 0.0], [250.3109217171717, 0.0], [250.54553345959596, 0.0], [250.8163667929293, 0.0], [250.9184422348485, 0.0], [251.0853851010101, 0.0], [250.34367108585857, 0.0], [249.00686553030303, 0.0], [248.86679292929293, 0.0], [249.0524384469697, 0.0], [249.14831912878788, 0.0], [249.49439709595958, 0.0], [249.54991319444446, 0.0], [249.6192787247475, 0.0], [249.82773042929293, 0.0], [250.18169981060606, 0.0], [250.49033301767676, 0.0], [250.6596827651515, 0.0], [250.83451704545453, 0.0], [250.9983428030303, 0.0], [250.7286537247475, 0.0], [249.31178977272728, 0.0], [248.70663667929293, 0.0], [248.8203519570707, 0.0], [248.90013415404042, 0.0], [249.17045454545453, 0.0], [249.45789930555554, 0.0], [249.63577178030303, 0.0], [249.79592803030303, 0.0], [250.03633996212122, 0.0], [250.29983428030303, 0.0], [250.59911616161617, 0.0], [250.83420138888889, 0.0], [251.0557528409091, 0.0], [250.65214646464648, 0.0], [249.15297506313132, 0.0], [248.4776278409091, 0.0], [248.6261047979798, 0.0], [248.76834753787878, 0.0], [249.03495896464648, 0.0], [249.33357007575756, 0.0], [249.41946811868686, 0.0], [249.70138888888889, 0.0], [249.9614504419192, 0.0], [250.28416982323233, 0.0], [250.4921480429293, 0.0], [250.736663510101, 0.0], [250.8309264520202, 0.0], [250.87026515151516, 0.0], [249.92818813131314, 0.0], [248.2544586489899, 0.0], [247.91946811868686, 0.0], [248.5565025252525, 0.0], [249.63549558080808, 0.0], [249.92321654040404, 0.0], [250.0669981060606, 0.0], [250.21803977272728, 0.0], [250.52600220959596, 0.0], [250.771819760101, 0.0], [251.10179924242425, 0.0], [251.43899936868686, 0.0], [251.6361663510101, 0.0], [251.84635416666666, 0.0], [251.95142834595958, 0.0], [250.25011837121212, 0.0], [246.81175031565655, 0.0], [246.62847222222223, 0.0], [248.24419981060606, 0.0], [250.38186553030303, 0.0], [250.62409248737373, 0.0], [250.84118529040404, 0.0], [251.05512152777777, 0.0], [251.3727509469697, 0.0], [251.69270833333334, 0.0], [251.98236268939394, 0.0], [252.06632733585857, 0.0], [251.88608743686868, 0.0], [249.7946259469697, 0.0], [248.7325994318182, 0.0], [248.779632260101, 0.0], [249.1914457070707, 0.0], [249.29671717171718, 0.0], [249.4408143939394, 0.0], [249.63095801767676, 0.0], [249.90064709595958, 0.0], [250.13525883838383, 0.0], [250.51590119949495, 0.0], [250.86264993686868, 0.0], [251.20430871212122, 0.0], [251.3693181818182, 0.0], [251.53428819444446, 0.0], [251.4319365530303, 0.0], [250.08293876262627, 0.0], [249.05093907828282, 0.0], [249.02742266414143, 0.0], [249.20793876262627, 0.0], [249.28365688131314, 0.0], [249.38415404040404, 0.0], [249.63190498737373, 0.0], [249.73749210858585, 0.0], [249.87855113636363, 0.0], [250.2086095328283, 0.0], [250.48409880050505, 0.0], [250.69558869949495, 0.0], [250.89926609848484, 0.0], [250.92447916666666, 0.0], [249.91370738636363, 0.0], [248.68899936868686, 0.0], [248.60503472222223, 0.0], [248.69515467171718, 0.0], [248.79659880050505, 0.0], [249.15897253787878, 0.0], [249.41532512626262, 0.0], [249.56277619949495, 0.0], [249.7025331439394, 0.0], [250.0921717171717, 0.0], [250.21504103535352, 0.0], [250.5138494318182, 0.0], [250.70221748737373, 0.0], [250.7628235479798, 0.0], [249.93935448232324, 0.0], [248.50919349747474, 0.0], [248.28132891414143, 0.0], [248.42507102272728, 0.0], [249.263336489899, 0.0], [250.37653882575756, 0.0], [250.56577493686868, 0.0], [250.73019255050505, 0.0], [250.9833096590909, 0.0], [251.3626893939394, 0.0], [251.64299242424244, 0.0], [251.8041745580808, 0.0], [251.86205808080808, 0.0], [250.1182133838384, 0.0], [247.3536537247475, 0.0], [247.5262389520202, 0.0], [249.18390940656565, 0.0], [251.64749053030303, 0.0], [251.70888573232324, 0.0], [251.76779513888889, 0.0], [251.22387941919192, 0.0], [251.5211884469697, 0.0], [251.73125789141415, 0.0], [251.9430634469697, 0.0], [251.8577178030303, 0.0], [249.9871764520202, 0.0], [248.27122790404042, 0.0], [248.69965277777777, 0.0], [248.82851957070707, 0.0], [249.10681029040404, 0.0], [249.31395991161617, 0.0], [249.3715672348485, 0.0], [249.41642992424244, 0.0], [249.6211332070707, 0.0], [249.7812105429293, 0.0], [250.2127525252525, 0.0], [250.3989109848485, 0.0], [250.62464488636363, 0.0], [250.7276672979798, 0.0], [250.24704071969697, 0.0], [248.7505918560606, 0.0], [248.3900726010101, 0.0], [248.8303740530303, 0.0], [249.7064788510101, 0.0], [250.62973484848484, 0.0], [250.69184027777777, 0.0], [250.84359217171718, 0.0], [250.93607954545453, 0.0], [251.0430082070707, 0.0], [251.3689630681818, 0.0], [251.50078914141415, 0.0], [251.78720801767676, 0.0], [251.91524621212122, 0.0], [252.0000394570707, 0.0], [251.39658301767676, 0.0], [248.892913510101, 0.0], [246.44180082070707, 0.0], [246.59745896464648, 0.0], [247.56100063131314, 0.0], [248.92309816919192, 0.0], [249.10243055555554, 0.0], [249.14772727272728, 0.0], [249.23926767676767, 0.0], [249.623382260101, 0.0], [249.7611663510101, 0.0], [250.19594381313132, 0.0], [250.41232638888889, 0.0], [250.67479482323233, 0.0], [250.46121369949495, 0.0], [249.11138731060606, 0.0], [248.11343907828282, 0.0], [248.15668402777777, 0.0], [248.3927162247475, 0.0], [249.0413115530303, 0.0], [250.15494791666666, 0.0], [250.3003077651515, 0.0], [250.4497316919192, 0.0], [250.6830808080808, 0.0], [250.9793244949495, 0.0], [251.33637152777777, 0.0], [251.57694128787878, 0.0], [251.80445075757575, 0.0], [252.10752051767676, 0.0], [252.10929608585857, 0.0], [251.07788825757575, 0.0], [248.95071811868686, 0.0], [246.86939709595958, 0.0], [247.0312894570707, 0.0], [247.93951231060606, 0.0], [249.28866792929293, 0.0], [249.33128156565655, 0.0], [249.4681976010101, 0.0], [249.66721906565655, 0.0], [250.00217013888889, 0.0], [250.2416351010101, 0.0]]
[[250.13427241161617, 0.0], [250.34793244949495, 0.0], [250.51148200757575, 0.0], [249.99127998737373, 0.0], [248.37073863636363, 0.0], [247.75576073232324, 0.0], [247.90755208333334, 0.0], [248.3292297979798, 0.0], [248.50998263888889, 0.0], [248.62038352272728, 0.0], [248.67589962121212, 0.0], [248.83984375, 0.0], [249.08211016414143, 0.0], [249.44898200757575, 0.0], [249.79549400252526, 0.0], [250.0730744949495, 0.0], [250.28969381313132, 0.0], [250.025726010101, 0.0], [248.4519807449495, 0.0], [247.52252998737373, 0.0], [247.71101641414143, 0.0], [248.4541508838384, 0.0], [249.50489267676767, 0.0], [249.5870028409091, 0.0], [249.7283775252525, 0.0], [249.84284248737373, 0.0], [250.07023358585857, 0.0], [250.3404356060606, 0.0], [250.60854640151516, 0.0], [250.95947758838383, 0.0], [251.06269728535352, 0.0], [250.92988478535352, 0.0], [249.55011047979798, 0.0], [248.85570549242425, 0.0], [248.90044981060606, 0.0], [249.01092960858585, 0.0], [249.1422821969697, 0.0], [249.56952335858585, 0.0], [249.67317708333334, 0.0], [249.9229403409091, 0.0], [250.12768308080808, 0.0], [250.52099116161617, 0.0], [250.7833412247475, 0.0], [251.12357954545453, 0.0], [251.25130208333334, 0.0], [251.37748579545453, 0.0], [250.3466303661616, 0.0], [249.0903961489899, 0.0], [249.00019728535352, 0.0], [249.1032196969697, 0.0], [249.29166666666666, 0.0], [249.65557922979798, 0.0], [249.8382654671717, 0.0], [249.90530303030303, 0.0], [250.1622869318182, 0.0], [250.48907039141415, 0.0], [250.86600378787878, 0.0], [251.09244791666666, 0.0], [251.35633680555554, 0.0], [251.51444128787878, 0.0], [251.41670612373738, 0.0], [250.0645912247475, 0.0], [249.07729640151516, 0.0], [249.11971275252526, 0.0], [249.33510890151516, 0.0], [249.4804292929293, 0.0], [249.7767518939394, 0.0], [249.96657986111111, 0.0], [250.02537089646464, 0.0], [250.24782986111111, 0.0], [250.587555239899, 0.0], [250.92980587121212, 0.0], [251.12859059343435, 0.0], [251.48690025252526, 0.0], [251.72419507575756, 0.0], [251.81609059343435, 0.0], [250.74708017676767, 0.0], [249.5233980429293, 0.0], [249.4034090909091, 0.0], [249.61564867424244, 0.0], [249.7895754419192, 0.0], [250.02907986111111, 0.0], [250.12630208333334, 0.0], [250.14382102272728, 0.0], [250.27690972222223, 0.0], [250.66536458333334, 0.0], [250.8961884469697, 0.0], [251.20557133838383, 0.0], [251.46859217171718, 0.0], [251.72675978535352, 0.0], [251.73409880050505, 0.0], [250.9370265151515, 0.0], [249.4502446338384, 0.0], [249.22435290404042, 0.0], [249.35523200757575, 0.0], [249.5629734848485, 0.0], [249.72285353535352, 0.0], [249.8654119318182, 0.0], [249.85168087121212, 0.0], [249.88521938131314, 0.0], [250.03144728535352, 0.0], [250.4274384469697, 0.0], [250.63076073232324, 0.0], [250.86675347222223, 0.0], [251.1110321969697, 0.0], [250.89307133838383, 0.0], [249.45924084595958, 0.0], [248.6249605429293, 0.0], [248.70320391414143, 0.0], [248.92783301767676, 0.0], [249.07453440656565, 0.0], [249.4915956439394, 0.0], [249.7042297979798, 0.0], [249.90155460858585, 0.0], [250.15321180555554, 0.0], [250.50426136363637, 0.0], [250.8559816919192, 0.0], [251.18828914141415, 0.0], [251.41781092171718, 0.0], [251.63024779040404, 0.0], [251.36647727272728, 0.0], [249.85677083333334, 0.0], [248.97829861111111, 0.0], [249.07836174242425, 0.0], [249.36801609848484, 0.0], [249.57682291666666, 0.0], [249.90873579545453, 0.0], [250.07169349747474, 0.0], [250.2008759469697, 0.0], [250.44345801767676, 0.0], [250.81376262626262, 0.0], [251.1411379419192, 0.0], [251.38940183080808, 0.0], [251.52864583333334, 0.0], [251.5888178661616, 0.0], [250.3158143939394, 0.0], [246.60787563131314, 0.0], [245.85866477272728, 0.0], [247.50564236111111, 0.0], [249.8187342171717, 0.0], [249.93659248737373, 0.0], [250.25217013888889, 0.0], [250.3185369318182, 0.0], [250.39812184343435, 0.0], [250.69985006313132, 0.0], [251.02252998737373, 0.0], [251.23007417929293, 0.0], [251.53922032828282, 0.0], [251.64820075757575, 0.0], [251.83562184343435, 0.0], [250.77324021464648, 0.0], [248.0167692550505, 0.0], [247.9180082070707, 0.0], [249.51945233585857, 0.0], [251.4937657828283, 0.0], [251.7020596590909, 0.0], [251.79943970959596, 0.0], [251.9810606060606, 0.0], [252.31368371212122, 0.0], [252.37878787878788, 0.0], [252.14157196969697, 0.0], [252.20501893939394, 0.0], [251.98697916666666, 0.0], [249.33506944444446, 0.0], [248.18493529040404, 0.0], [248.1747553661616, 0.0], [248.34678819444446, 0.0], [248.64551767676767, 0.0], [248.90561868686868, 0.0], [248.99743529040404, 0.0], [249.26605902777777, 0.0], [249.4436553030303, 0.0], [249.80007102272728, 0.0], [250.09221117424244, 0.0], [250.40561868686868, 0.0], [250.59122474747474, 0.0], [250.28839172979798, 0.0], [248.57323232323233, 0.0], [247.7918244949495, 0.0], [247.9190735479798, 0.0], [248.82445549242425, 0.0], [250.0145991161616, 0.0], [250.27193813131314, 0.0], [250.43600063131314, 0.0], [250.51878156565655, 0.0], [250.76964962121212, 0.0], [251.0741792929293, 0.0], [251.3270202020202, 0.0], [251.66646938131314, 0.0], [251.84248737373738, 0.0], [251.79644097222223, 0.0], [250.4174163510101, 0.0], [249.1885258838384, 0.0], [247.66895517676767, 0.0], [247.8499053030303, 0.0], [249.3800110479798, 0.0], [251.30389835858585, 0.0], [251.52529198232324, 0.0], [251.6886442550505, 0.0], [251.9843355429293, 0.0], [252.34528882575756, 0.0], [252.290680239899, 0.0], [251.78657670454547, 0.0], [251.7957702020202, 0.0], [250.6260258838384, 0.0], [249.43430397727272, 0.0], [249.40388257575756, 0.0], [249.68386994949495, 0.0], [249.87969539141415, 0.0], [250.22435290404042, 0.0], [250.25607638888889, 0.0], [250.52205650252526, 0.0], [250.8901515151515, 0.0], [251.00082859848484, 0.0], [251.22747001262627, 0.0], [251.39831912878788, 0.0], [251.65747316919192, 0.0], [251.80926452020202, 0.0], [251.3246922348485, 0.0], [249.7896543560606, 0.0], [247.85452178030303, 0.0], [248.0882654671717, 0.0], [249.52272727272728, 0.0], [251.45174400252526, 0.0], [251.7025726010101, 0.0], [251.75122316919192, 0.0], [252.00019728535352, 0.0], [252.2674005681818, 0.0], [252.24617266414143, 0.0], [251.8427241161616, 0.0], [251.91500946969697, 0.0], [251.05875157828282, 0.0], [249.8387389520202, 0.0], [249.697601010101, 0.0], [249.91544349747474, 0.0], [250.130523989899, 0.0], [250.52122790404042, 0.0], [250.63024779040404, 0.0], [250.67250631313132, 0.0], [250.88529829545453, 0.0], [250.97222222222223, 0.0], [251.3042140151515, 0.0], [251.57129892676767, 0.0], [251.7919034090909, 0.0], [251.8292297979798, 0.0], [250.65636837121212, 0.0], [249.38139204545453, 0.0], [247.91055082070707, 0.0], [248.1416903409091, 0.0], [248.94775883838383, 0.0], [250.25631313131314, 0.0], [250.4062105429293, 0.0], [250.48705808080808, 0.0], [250.65550031565655, 0.0], [250.95714962121212, 0.0], [251.20020517676767, 0.0], [251.4888731060606, 0.0], [251.67305871212122, 0.0], [251.7052556818182, 0.0], [250.43067392676767, 0.0], [249.40660511363637, 0.0], [249.37361900252526, 0.0], [249.46673768939394, 0.0], [249.63821811868686, 0.0], [249.9677241161616, 0.0], [250.0752840909091, 0.0], [250.22115688131314, 0.0], [250.4481928661616, 0.0], [250.64693813131314, 0.0], [251.0317234848485, 0.0], [251.12507891414143, 0.0], [251.40198863636363, 0.0], [251.44077493686868, 0.0], [250.63257575757575, 0.0], [249.29225852272728, 0.0], [249.08858112373738, 0.0], [249.21681660353536, 0.0], [249.41654829545453, 0.0], [249.60416666666666, 0.0], [249.7177241161616, 0.0], [249.78267045454547, 0.0], [250.0095880681818, 0.0], [250.18757891414143, 0.0], [250.52829071969697, 0.0], [250.78274936868686, 0.0], [250.920257260101, 0.0], [251.03701073232324, 0.0], [250.9705255681818, 0.0], [249.78874684343435, 0.0], [248.76649305555554, 0.0], [248.8231139520202, 0.0], [249.0625, 0.0], [249.26534880050505, 0.0], [249.54517834595958, 0.0], [249.62618371212122, 0.0], [249.73792613636363, 0.0], [249.94053819444446, 0.0], [250.3109217171717, 0.0], [250.54553345959596, 0.0], [250.8163667929293, 0.0], [250.9184422348485, 0.0], [251.0853851010101, 0.0], [250.34367108585857, 0.0], [249.00686553030303, 0.0], [248.86679292929293, 0.0], [249.0524384469697, 0.0], [249.14831912878788, 0.0], [249.49439709595958, 0.0], [249.54991319444446, 0.0], [249.6192787247475, 0.0], [249.82773042929293, 0.0], [250.18169981060606, 0.0], [250.49033301767676, 0.0], [250.6596827651515, 0.0], [250.83451704545453, 0.0], [250.9983428030303, 0.0], [250.7286537247475, 0.0], [249.31178977272728, 0.0], [248.70663667929293, 0.0], [248.8203519570707, 0.0], [248.90013415404042, 0.0], [249.17045454545453, 0.0], [249.45789930555554, 0.0], [249.63577178030303, 0.0], [249.79592803030303, 0.0], [250.03633996212122, 0.0], [250.29983428030303, 0.0], [250.59911616161617, 0.0], [250.83420138888889, 0.0], [251.0557528409091, 0.0], [250.65214646464648, 0.0], [249.15297506313132, 0.0], [248.4776278409091, 0.0], [248.6261047979798, 0.0], [248.76834753787878, 0.0], [249.03495896464648, 0.0], [249.33357007575756, 0.0], [249.41946811868686, 0.0], [249.70138888888889, 0.0], [249.9614504419192, 0.0], [250.28416982323233, 0.0], [250.4921480429293, 0.0], [250.736663510101, 0.0], [250.8309264520202, 0.0], [250.87026515151516, 0.0], [249.92818813131314, 0.0], [248.2544586489899, 0.0], [247.91946811868686, 0.0], [248.5565025252525, 0.0], [249.63549558080808, 0.0], [249.92321654040404, 0.0], [250.0669981060606, 0.0], [250.21803977272728, 0.0], [250.52600220959596, 0.0], [250.771819760101, 0.0], [251.10179924242425, 0.0], [251.43899936868686, 0.0], [251.6361663510101, 0.0], [251.84635416666666, 0.0], [251.95142834595958, 0.0], [250.25011837121212, 0.0], [246.81175031565655, 0.0], [246.62847222222223, 0.0], [248.24419981060606, 0.0], [250.38186553030303, 0.0], [250.62409248737373, 0.0], [250.84118529040404, 0.0], [251.05512152777777, 0.0], [251.3727509469697, 0.0], [251.69270833333334, 0.0], [251.98236268939394, 0.0], [252.06632733585857, 0.0], [251.88608743686868, 0.0], [249.7946259469697, 0.0], [248.7325994318182, 0.0], [248.779632260101, 0.0], [249.1914457070707, 0.0], [249.29671717171718, 0.0], [249.4408143939394, 0.0], [249.63095801767676, 0.0], [249.90064709595958, 0.0], [250.13525883838383, 0.0], [250.51590119949495, 0.0], [250.86264993686868, 0.0], [251.20430871212122, 0.0], [251.3693181818182, 0.0], [251.53428819444446, 0.0], [251.4319365530303, 0.0], [250.08293876262627, 0.0], [249.05093907828282, 0.0], [249.02742266414143, 0.0], [249.20793876262627, 0.0], [249.28365688131314, 0.0], [249.38415404040404, 0.0], [249.63190498737373, 0.0], [249.73749210858585, 0.0], [249.87855113636363, 0.0], [250.2086095328283, 0.0], [250.48409880050505, 0.0], [250.69558869949495, 0.0], [250.89926609848484, 0.0], [250.92447916666666, 0.0], [249.91370738636363, 0.0], [248.68899936868686, 0.0], [248.60503472222223, 0.0], [248.69515467171718, 0.0], [248.79659880050505, 0.0], [249.15897253787878, 0.0], [249.41532512626262, 0.0], [249.56277619949495, 0.0], [249.7025331439394, 0.0], [250.0921717171717, 0.0], [250.21504103535352, 0.0], [250.5138494318182, 0.0], [250.70221748737373, 0.0], [250.7628235479798, 0.0], [249.93935448232324, 0.0], [248.50919349747474, 0.0], [248.28132891414143, 0.0], [248.42507102272728, 0.0], [249.263336489899, 0.0], [250.37653882575756, 0.0], [250.56577493686868, 0.0], [250.73019255050505, 0.0], [250.9833096590909, 0.0], [251.3626893939394, 0.0], [251.64299242424244, 0.0], [251.8041745580808, 0.0], [251.86205808080808, 0.0], [250.1182133838384, 0.0], [247.3536537247475, 0.0], [247.5262389520202, 0.0], [249.18390940656565, 0.0], [251.64749053030303, 0.0], [251.70888573232324, 0.0], [251.76779513888889, 0.0], [251.22387941919192, 0.0], [251.5211884469697, 0.0], [251.73125789141415, 0.0], [251.9430634469697, 0.0], [251.8577178030303, 0.0], [249.9871764520202, 0.0], [248.27122790404042, 0.0], [248.69965277777777, 0.0], [248.82851957070707, 0.0], [249.10681029040404, 0.0], [249.31395991161617, 0.0], [249.3715672348485, 0.0], [249.41642992424244, 0.0], [249.6211332070707, 0.0], [249.7812105429293, 0.0], [250.2127525252525, 0.0], [250.3989109848485, 0.0], [250.62464488636363, 0.0], [250.7276672979798, 0.0], [250.24704071969697, 0.0], [248.7505918560606, 0.0], [248.3900726010101, 0.0], [248.8303740530303, 0.0], [249.7064788510101, 0.0], [250.62973484848484, 0.0], [250.69184027777777, 0.0], [250.84359217171718, 0.0], [250.93607954545453, 0.0], [251.0430082070707, 0.0], [251.3689630681818, 0.0], [251.50078914141415, 0.0], [251.78720801767676, 0.0], [251.91524621212122, 0.0], [252.0000394570707, 0.0], [251.39658301767676, 0.0], [248.892913510101, 0.0], [246.44180082070707, 0.0], [246.59745896464648, 0.0], [247.56100063131314, 0.0], [248.92309816919192, 0.0], [249.10243055555554, 0.0], [249.14772727272728, 0.0], [249.23926767676767, 0.0], [249.623382260101, 0.0], [249.7611663510101, 0.0], [250.19594381313132, 0.0], [250.41232638888889, 0.0], [250.67479482323233, 0.0], [250.46121369949495, 0.0], [249.11138731060606, 0.0], [248.11343907828282, 0.0], [248.15668402777777, 0.0], [248.3927162247475, 0.0], [249.0413115530303, 0.0], [250.15494791666666, 0.0], [250.3003077651515, 0.0], [250.4497316919192, 0.0], [250.6830808080808, 0.0], [250.9793244949495, 0.0], [251.33637152777777, 0.0], [251.57694128787878, 0.0], [251.80445075757575, 0.0], [252.10752051767676, 0.0], [252.10929608585857, 0.0], [251.07788825757575, 0.0], [248.95071811868686, 0.0], [246.86939709595958, 0.0], [247.0312894570707, 0.0], [247.93951231060606, 0.0], [249.28866792929293, 0.0], [249.33128156565655, 0.0], [249.4681976010101, 0.0], [249.66721906565655, 0.0], [250.00217013888889, 0.0], [250.2416351010101, 0.0], [250.58471433080808, 0.0]]
[[250.34793244949495, 0.0], [250.51148200757575, 0.0], [249.99127998737373, 0.0], [248.37073863636363, 0.0], [247.75576073232324, 0.0], [247.90755208333334, 0.0], [248.3292297979798, 0.0], [248.50998263888889, 0.0], [248.62038352272728, 0.0], [248.67589962121212, 0.0], [248.83984375, 0.0], [249.08211016414143, 0.0], [249.44898200757575, 0.0], [249.79549400252526, 0.0], [250.0730744949495, 0.0], [250.28969381313132, 0.0], [250.025726010101, 0.0], [248.4519807449495, 0.0], [247.52252998737373, 0.0], [247.71101641414143, 0.0], [248.4541508838384, 0.0], [249.50489267676767, 0.0], [249.5870028409091, 0.0], [249.7283775252525, 0.0], [249.84284248737373, 0.0], [250.07023358585857, 0.0], [250.3404356060606, 0.0], [250.60854640151516, 0.0], [250.95947758838383, 0.0], [251.06269728535352, 0.0], [250.92988478535352, 0.0], [249.55011047979798, 0.0], [248.85570549242425, 0.0], [248.90044981060606, 0.0], [249.01092960858585, 0.0], [249.1422821969697, 0.0], [249.56952335858585, 0.0], [249.67317708333334, 0.0], [249.9229403409091, 0.0], [250.12768308080808, 0.0], [250.52099116161617, 0.0], [250.7833412247475, 0.0], [251.12357954545453, 0.0], [251.25130208333334, 0.0], [251.37748579545453, 0.0], [250.3466303661616, 0.0], [249.0903961489899, 0.0], [249.00019728535352, 0.0], [249.1032196969697, 0.0], [249.29166666666666, 0.0], [249.65557922979798, 0.0], [249.8382654671717, 0.0], [249.90530303030303, 0.0], [250.1622869318182, 0.0], [250.48907039141415, 0.0], [250.86600378787878, 0.0], [251.09244791666666, 0.0], [251.35633680555554, 0.0], [251.51444128787878, 0.0], [251.41670612373738, 0.0], [250.0645912247475, 0.0], [249.07729640151516, 0.0], [249.11971275252526, 0.0], [249.33510890151516, 0.0], [249.4804292929293, 0.0], [249.7767518939394, 0.0], [249.96657986111111, 0.0], [250.02537089646464, 0.0], [250.24782986111111, 0.0], [250.587555239899, 0.0], [250.92980587121212, 0.0], [251.12859059343435, 0.0], [251.48690025252526, 0.0], [251.72419507575756, 0.0], [251.81609059343435, 0.0], [250.74708017676767, 0.0], [249.5233980429293, 0.0], [249.4034090909091, 0.0], [249.61564867424244, 0.0], [249.7895754419192, 0.0], [250.02907986111111, 0.0], [250.12630208333334, 0.0], [250.14382102272728, 0.0], [250.27690972222223, 0.0], [250.66536458333334, 0.0], [250.8961884469697, 0.0], [251.20557133838383, 0.0], [251.46859217171718, 0.0], [251.72675978535352, 0.0], [251.73409880050505, 0.0], [250.9370265151515, 0.0], [249.4502446338384, 0.0], [249.22435290404042, 0.0], [249.35523200757575, 0.0], [249.5629734848485, 0.0], [249.72285353535352, 0.0], [249.8654119318182, 0.0], [249.85168087121212, 0.0], [249.88521938131314, 0.0], [250.03144728535352, 0.0], [250.4274384469697, 0.0], [250.63076073232324, 0.0], [250.86675347222223, 0.0], [251.1110321969697, 0.0], [250.89307133838383, 0.0], [249.45924084595958, 0.0], [248.6249605429293, 0.0], [248.70320391414143, 0.0], [248.92783301767676, 0.0], [249.07453440656565, 0.0], [249.4915956439394, 0.0], [249.7042297979798, 0.0], [249.90155460858585, 0.0], [250.15321180555554, 0.0], [250.50426136363637, 0.0], [250.8559816919192, 0.0], [251.18828914141415, 0.0], [251.41781092171718, 0.0], [251.63024779040404, 0.0], [251.36647727272728, 0.0], [249.85677083333334, 0.0], [248.97829861111111, 0.0], [249.07836174242425, 0.0], [249.36801609848484, 0.0], [249.57682291666666, 0.0], [249.90873579545453, 0.0], [250.07169349747474, 0.0], [250.2008759469697, 0.0], [250.44345801767676, 0.0], [250.81376262626262, 0.0], [251.1411379419192, 0.0], [251.38940183080808, 0.0], [251.52864583333334, 0.0], [251.5888178661616, 0.0], [250.3158143939394, 0.0], [246.60787563131314, 0.0], [245.85866477272728, 0.0], [247.50564236111111, 0.0], [249.8187342171717, 0.0], [249.93659248737373, 0.0], [250.25217013888889, 0.0], [250.3185369318182, 0.0], [250.39812184343435, 0.0], [250.69985006313132, 0.0], [251.02252998737373, 0.0], [251.23007417929293, 0.0], [251.53922032828282, 0.0], [251.64820075757575, 0.0], [251.83562184343435, 0.0], [250.77324021464648, 0.0], [248.0167692550505, 0.0], [247.9180082070707, 0.0], [249.51945233585857, 0.0], [251.4937657828283, 0.0], [251.7020596590909, 0.0], [251.79943970959596, 0.0], [251.9810606060606, 0.0], [252.31368371212122, 0.0], [252.37878787878788, 0.0], [252.14157196969697, 0.0], [252.20501893939394, 0.0], [251.98697916666666, 0.0], [249.33506944444446, 0.0], [248.18493529040404, 0.0], [248.1747553661616, 0.0], [248.34678819444446, 0.0], [248.64551767676767, 0.0], [248.90561868686868, 0.0], [248.99743529040404, 0.0], [249.26605902777777, 0.0], [249.4436553030303, 0.0], [249.80007102272728, 0.0], [250.09221117424244, 0.0], [250.40561868686868, 0.0], [250.59122474747474, 0.0], [250.28839172979798, 0.0], [248.57323232323233, 0.0], [247.7918244949495, 0.0], [247.9190735479798, 0.0], [248.82445549242425, 0.0], [250.0145991161616, 0.0], [250.27193813131314, 0.0], [250.43600063131314, 0.0], [250.51878156565655, 0.0], [250.76964962121212, 0.0], [251.0741792929293, 0.0], [251.3270202020202, 0.0], [251.66646938131314, 0.0], [251.84248737373738, 0.0], [251.79644097222223, 0.0], [250.4174163510101, 0.0], [249.1885258838384, 0.0], [247.66895517676767, 0.0], [247.8499053030303, 0.0], [249.3800110479798, 0.0], [251.30389835858585, 0.0], [251.52529198232324, 0.0], [251.6886442550505, 0.0], [251.9843355429293, 0.0], [252.34528882575756, 0.0], [252.290680239899, 0.0], [251.78657670454547, 0.0], [251.7957702020202, 0.0], [250.6260258838384, 0.0], [249.43430397727272, 0.0], [249.40388257575756, 0.0], [249.68386994949495, 0.0], [249.87969539141415, 0.0], [250.22435290404042, 0.0], [250.25607638888889, 0.0], [250.52205650252526, 0.0], [250.8901515151515, 0.0], [251.00082859848484, 0.0], [251.22747001262627, 0.0], [251.39831912878788, 0.0], [251.65747316919192, 0.0], [251.80926452020202, 0.0], [251.3246922348485, 0.0], [249.7896543560606, 0.0], [247.85452178030303, 0.0], [248.0882654671717, 0.0], [249.52272727272728, 0.0], [251.45174400252526, 0.0], [251.7025726010101, 0.0], [251.75122316919192, 0.0], [252.00019728535352, 0.0], [252.2674005681818, 0.0], [252.24617266414143, 0.0], [251.8427241161616, 0.0], [251.91500946969697, 0.0], [251.05875157828282, 0.0], [249.8387389520202, 0.0], [249.697601010101, 0.0], [249.91544349747474, 0.0], [250.130523989899, 0.0], [250.52122790404042, 0.0], [250.63024779040404, 0.0], [250.67250631313132, 0.0], [250.88529829545453, 0.0], [250.97222222222223, 0.0], [251.3042140151515, 0.0], [251.57129892676767, 0.0], [251.7919034090909, 0.0], [251.8292297979798, 0.0], [250.65636837121212, 0.0], [249.38139204545453, 0.0], [247.91055082070707, 0.0], [248.1416903409091, 0.0], [248.94775883838383, 0.0], [250.25631313131314, 0.0], [250.4062105429293, 0.0], [250.48705808080808, 0.0], [250.65550031565655, 0.0], [250.95714962121212, 0.0], [251.20020517676767, 0.0], [251.4888731060606, 0.0], [251.67305871212122, 0.0], [251.7052556818182, 0.0], [250.43067392676767, 0.0], [249.40660511363637, 0.0], [249.37361900252526, 0.0], [249.46673768939394, 0.0], [249.63821811868686, 0.0], [249.9677241161616, 0.0], [250.0752840909091, 0.0], [250.22115688131314, 0.0], [250.4481928661616, 0.0], [250.64693813131314, 0.0], [251.0317234848485, 0.0], [251.12507891414143, 0.0], [251.40198863636363, 0.0], [251.44077493686868, 0.0], [250.63257575757575, 0.0], [249.29225852272728, 0.0], [249.08858112373738, 0.0], [249.21681660353536, 0.0], [249.41654829545453, 0.0], [249.60416666666666, 0.0], [249.7177241161616, 0.0], [249.78267045454547, 0.0], [250.0095880681818, 0.0], [250.18757891414143, 0.0], [250.52829071969697, 0.0], [250.78274936868686, 0.0], [250.920257260101, 0.0], [251.03701073232324, 0.0], [250.9705255681818, 0.0], [249.78874684343435, 0.0], [248.76649305555554, 0.0], [248.8231139520202, 0.0], [249.0625, 0.0], [249.26534880050505, 0.0], [249.54517834595958, 0.0], [249.62618371212122, 0.0], [249.73792613636363, 0.0], [249.94053819444446, 0.0], [250.3109217171717, 0.0], [250.54553345959596, 0.0], [250.8163667929293, 0.0], [250.9184422348485, 0.0], [251.0853851010101, 0.0], [250.34367108585857, 0.0], [249.00686553030303, 0.0], [248.86679292929293, 0.0], [249.0524384469697, 0.0], [249.14831912878788, 0.0], [249.49439709595958, 0.0], [249.54991319444446, 0.0], [249.6192787247475, 0.0], [249.82773042929293, 0.0], [250.18169981060606, 0.0], [250.49033301767676, 0.0], [250.6596827651515, 0.0], [250.83451704545453, 0.0], [250.9983428030303, 0.0], [250.7286537247475, 0.0], [249.31178977272728, 0.0], [248.70663667929293, 0.0], [248.8203519570707, 0.0], [248.90013415404042, 0.0], [249.17045454545453, 0.0], [249.45789930555554, 0.0], [249.63577178030303, 0.0], [249.79592803030303, 0.0], [250.03633996212122, 0.0], [250.29983428030303, 0.0], [250.59911616161617, 0.0], [250.83420138888889, 0.0], [251.0557528409091, 0.0], [250.65214646464648, 0.0], [249.15297506313132, 0.0], [248.4776278409091, 0.0], [248.6261047979798, 0.0], [248.76834753787878, 0.0], [249.03495896464648, 0.0], [249.33357007575756, 0.0], [249.41946811868686, 0.0], [249.70138888888889, 0.0], [249.9614504419192, 0.0], [250.28416982323233, 0.0], [250.4921480429293, 0.0], [250.736663510101, 0.0], [250.8309264520202, 0.0], [250.87026515151516, 0.0], [249.92818813131314, 0.0], [248.2544586489899, 0.0], [247.91946811868686, 0.0], [248.5565025252525, 0.0], [249.63549558080808, 0.0], [249.92321654040404, 0.0], [250.0669981060606, 0.0], [250.21803977272728, 0.0], [250.52600220959596, 0.0], [250.771819760101, 0.0], [251.10179924242425, 0.0], [251.43899936868686, 0.0], [251.6361663510101, 0.0], [251.84635416666666, 0.0], [251.95142834595958, 0.0], [250.25011837121212, 0.0], [246.81175031565655, 0.0], [246.62847222222223, 0.0], [248.24419981060606, 0.0], [250.38186553030303, 0.0], [250.62409248737373, 0.0], [250.84118529040404, 0.0], [251.05512152777777, 0.0], [251.3727509469697, 0.0], [251.69270833333334, 0.0], [251.98236268939394, 0.0], [252.06632733585857, 0.0], [251.88608743686868, 0.0], [249.7946259469697, 0.0], [248.7325994318182, 0.0], [248.779632260101, 0.0], [249.1914457070707, 0.0], [249.29671717171718, 0.0], [249.4408143939394, 0.0], [249.63095801767676, 0.0], [249.90064709595958, 0.0], [250.13525883838383, 0.0], [250.51590119949495, 0.0], [250.86264993686868, 0.0], [251.20430871212122, 0.0], [251.3693181818182, 0.0], [251.53428819444446, 0.0], [251.4319365530303, 0.0], [250.08293876262627, 0.0], [249.05093907828282, 0.0], [249.02742266414143, 0.0], [249.20793876262627, 0.0], [249.28365688131314, 0.0], [249.38415404040404, 0.0], [249.63190498737373, 0.0], [249.73749210858585, 0.0], [249.87855113636363, 0.0], [250.2086095328283, 0.0], [250.48409880050505, 0.0], [250.69558869949495, 0.0], [250.89926609848484, 0.0], [250.92447916666666, 0.0], [249.91370738636363, 0.0], [248.68899936868686, 0.0], [248.60503472222223, 0.0], [248.69515467171718, 0.0], [248.79659880050505, 0.0], [249.15897253787878, 0.0], [249.41532512626262, 0.0], [249.56277619949495, 0.0], [249.7025331439394, 0.0], [250.0921717171717, 0.0], [250.21504103535352, 0.0], [250.5138494318182, 0.0], [250.70221748737373, 0.0], [250.7628235479798, 0.0], [249.93935448232324, 0.0], [248.50919349747474, 0.0], [248.28132891414143, 0.0], [248.42507102272728, 0.0], [249.263336489899, 0.0], [250.37653882575756, 0.0], [250.56577493686868, 0.0], [250.73019255050505, 0.0], [250.9833096590909, 0.0], [251.3626893939394, 0.0], [251.64299242424244, 0.0], [251.8041745580808, 0.0], [251.86205808080808, 0.0], [250.1182133838384, 0.0], [247.3536537247475, 0.0], [247.5262389520202, 0.0], [249.18390940656565, 0.0], [251.64749053030303, 0.0], [251.70888573232324, 0.0], [251.76779513888889, 0.0], [251.22387941919192, 0.0], [251.5211884469697, 0.0], [251.73125789141415, 0.0], [251.9430634469697, 0.0], [251.8577178030303, 0.0], [249.9871764520202, 0.0], [248.27122790404042, 0.0], [248.69965277777777, 0.0], [248.82851957070707, 0.0], [249.10681029040404, 0.0], [249.31395991161617, 0.0], [249.3715672348485, 0.0], [249.41642992424244, 0.0], [249.6211332070707, 0.0], [249.7812105429293, 0.0], [250.2127525252525, 0.0], [250.3989109848485, 0.0], [250.62464488636363, 0.0], [250.7276672979798, 0.0], [250.24704071969697, 0.0], [248.7505918560606, 0.0], [248.3900726010101, 0.0], [248.8303740530303, 0.0], [249.7064788510101, 0.0], [250.62973484848484, 0.0], [250.69184027777777, 0.0], [250.84359217171718, 0.0], [250.93607954545453, 0.0], [251.0430082070707, 0.0], [251.3689630681818, 0.0], [251.50078914141415, 0.0], [251.78720801767676, 0.0], [251.91524621212122, 0.0], [252.0000394570707, 0.0], [251.39658301767676, 0.0], [248.892913510101, 0.0], [246.44180082070707, 0.0], [246.59745896464648, 0.0], [247.56100063131314, 0.0], [248.92309816919192, 0.0], [249.10243055555554, 0.0], [249.14772727272728, 0.0], [249.23926767676767, 0.0], [249.623382260101, 0.0], [249.7611663510101, 0.0], [250.19594381313132, 0.0], [250.41232638888889, 0.0], [250.67479482323233, 0.0], [250.46121369949495, 0.0], [249.11138731060606, 0.0], [248.11343907828282, 0.0], [248.15668402777777, 0.0], [248.3927162247475, 0.0], [249.0413115530303, 0.0], [250.15494791666666, 0.0], [250.3003077651515, 0.0], [250.4497316919192, 0.0], [250.6830808080808, 0.0], [250.9793244949495, 0.0], [251.33637152777777, 0.0], [251.57694128787878, 0.0], [251.80445075757575, 0.0], [252.10752051767676, 0.0], [252.10929608585857, 0.0], [251.07788825757575, 0.0], [248.95071811868686, 0.0], [246.86939709595958, 0.0], [247.0312894570707, 0.0], [247.93951231060606, 0.0], [249.28866792929293, 0.0], [249.33128156565655, 0.0], [249.4681976010101, 0.0], [249.66721906565655, 0.0], [250.00217013888889, 0.0], [250.2416351010101, 0.0], [250.58471433080808, 0.0], [250.7588383838384, 0.0]]
[[250.51148200757575, 0.0], [249.99127998737373, 0.0], [248.37073863636363, 0.0], [247.75576073232324, 0.0], [247.90755208333334, 0.0], [248.3292297979798, 0.0], [248.50998263888889, 0.0], [248.62038352272728, 0.0], [248.67589962121212, 0.0], [248.83984375, 0.0], [249.08211016414143, 0.0], [249.44898200757575, 0.0], [249.79549400252526, 0.0], [250.0730744949495, 0.0], [250.28969381313132, 0.0], [250.025726010101, 0.0], [248.4519807449495, 0.0], [247.52252998737373, 0.0], [247.71101641414143, 0.0], [248.4541508838384, 0.0], [249.50489267676767, 0.0], [249.5870028409091, 0.0], [249.7283775252525, 0.0], [249.84284248737373, 0.0], [250.07023358585857, 0.0], [250.3404356060606, 0.0], [250.60854640151516, 0.0], [250.95947758838383, 0.0], [251.06269728535352, 0.0], [250.92988478535352, 0.0], [249.55011047979798, 0.0], [248.85570549242425, 0.0], [248.90044981060606, 0.0], [249.01092960858585, 0.0], [249.1422821969697, 0.0], [249.56952335858585, 0.0], [249.67317708333334, 0.0], [249.9229403409091, 0.0], [250.12768308080808, 0.0], [250.52099116161617, 0.0], [250.7833412247475, 0.0], [251.12357954545453, 0.0], [251.25130208333334, 0.0], [251.37748579545453, 0.0], [250.3466303661616, 0.0], [249.0903961489899, 0.0], [249.00019728535352, 0.0], [249.1032196969697, 0.0], [249.29166666666666, 0.0], [249.65557922979798, 0.0], [249.8382654671717, 0.0], [249.90530303030303, 0.0], [250.1622869318182, 0.0], [250.48907039141415, 0.0], [250.86600378787878, 0.0], [251.09244791666666, 0.0], [251.35633680555554, 0.0], [251.51444128787878, 0.0], [251.41670612373738, 0.0], [250.0645912247475, 0.0], [249.07729640151516, 0.0], [249.11971275252526, 0.0], [249.33510890151516, 0.0], [249.4804292929293, 0.0], [249.7767518939394, 0.0], [249.96657986111111, 0.0], [250.02537089646464, 0.0], [250.24782986111111, 0.0], [250.587555239899, 0.0], [250.92980587121212, 0.0], [251.12859059343435, 0.0], [251.48690025252526, 0.0], [251.72419507575756, 0.0], [251.81609059343435, 0.0], [250.74708017676767, 0.0], [249.5233980429293, 0.0], [249.4034090909091, 0.0], [249.61564867424244, 0.0], [249.7895754419192, 0.0], [250.02907986111111, 0.0], [250.12630208333334, 0.0], [250.14382102272728, 0.0], [250.27690972222223, 0.0], [250.66536458333334, 0.0], [250.8961884469697, 0.0], [251.20557133838383, 0.0], [251.46859217171718, 0.0], [251.72675978535352, 0.0], [251.73409880050505, 0.0], [250.9370265151515, 0.0], [249.4502446338384, 0.0], [249.22435290404042, 0.0], [249.35523200757575, 0.0], [249.5629734848485, 0.0], [249.72285353535352, 0.0], [249.8654119318182, 0.0], [249.85168087121212, 0.0], [249.88521938131314, 0.0], [250.03144728535352, 0.0], [250.4274384469697, 0.0], [250.63076073232324, 0.0], [250.86675347222223, 0.0], [251.1110321969697, 0.0], [250.89307133838383, 0.0], [249.45924084595958, 0.0], [248.6249605429293, 0.0], [248.70320391414143, 0.0], [248.92783301767676, 0.0], [249.07453440656565, 0.0], [249.4915956439394, 0.0], [249.7042297979798, 0.0], [249.90155460858585, 0.0], [250.15321180555554, 0.0], [250.50426136363637, 0.0], [250.8559816919192, 0.0], [251.18828914141415, 0.0], [251.41781092171718, 0.0], [251.63024779040404, 0.0], [251.36647727272728, 0.0], [249.85677083333334, 0.0], [248.97829861111111, 0.0], [249.07836174242425, 0.0], [249.36801609848484, 0.0], [249.57682291666666, 0.0], [249.90873579545453, 0.0], [250.07169349747474, 0.0], [250.2008759469697, 0.0], [250.44345801767676, 0.0], [250.81376262626262, 0.0], [251.1411379419192, 0.0], [251.38940183080808, 0.0], [251.52864583333334, 0.0], [251.5888178661616, 0.0], [250.3158143939394, 0.0], [246.60787563131314, 0.0], [245.85866477272728, 0.0], [247.50564236111111, 0.0], [249.8187342171717, 0.0], [249.93659248737373, 0.0], [250.25217013888889, 0.0], [250.3185369318182, 0.0], [250.39812184343435, 0.0], [250.69985006313132, 0.0], [251.02252998737373, 0.0], [251.23007417929293, 0.0], [251.53922032828282, 0.0], [251.64820075757575, 0.0], [251.83562184343435, 0.0], [250.77324021464648, 0.0], [248.0167692550505, 0.0], [247.9180082070707, 0.0], [249.51945233585857, 0.0], [251.4937657828283, 0.0], [251.7020596590909, 0.0], [251.79943970959596, 0.0], [251.9810606060606, 0.0], [252.31368371212122, 0.0], [252.37878787878788, 0.0], [252.14157196969697, 0.0], [252.20501893939394, 0.0], [251.98697916666666, 0.0], [249.33506944444446, 0.0], [248.18493529040404, 0.0], [248.1747553661616, 0.0], [248.34678819444446, 0.0], [248.64551767676767, 0.0], [248.90561868686868, 0.0], [248.99743529040404, 0.0], [249.26605902777777, 0.0], [249.4436553030303, 0.0], [249.80007102272728, 0.0], [250.09221117424244, 0.0], [250.40561868686868, 0.0], [250.59122474747474, 0.0], [250.28839172979798, 0.0], [248.57323232323233, 0.0], [247.7918244949495, 0.0], [247.9190735479798, 0.0], [248.82445549242425, 0.0], [250.0145991161616, 0.0], [250.27193813131314, 0.0], [250.43600063131314, 0.0], [250.51878156565655, 0.0], [250.76964962121212, 0.0], [251.0741792929293, 0.0], [251.3270202020202, 0.0], [251.66646938131314, 0.0], [251.84248737373738, 0.0], [251.79644097222223, 0.0], [250.4174163510101, 0.0], [249.1885258838384, 0.0], [247.66895517676767, 0.0], [247.8499053030303, 0.0], [249.3800110479798, 0.0], [251.30389835858585, 0.0], [251.52529198232324, 0.0], [251.6886442550505, 0.0], [251.9843355429293, 0.0], [252.34528882575756, 0.0], [252.290680239899, 0.0], [251.78657670454547, 0.0], [251.7957702020202, 0.0], [250.6260258838384, 0.0], [249.43430397727272, 0.0], [249.40388257575756, 0.0], [249.68386994949495, 0.0], [249.87969539141415, 0.0], [250.22435290404042, 0.0], [250.25607638888889, 0.0], [250.52205650252526, 0.0], [250.8901515151515, 0.0], [251.00082859848484, 0.0], [251.22747001262627, 0.0], [251.39831912878788, 0.0], [251.65747316919192, 0.0], [251.80926452020202, 0.0], [251.3246922348485, 0.0], [249.7896543560606, 0.0], [247.85452178030303, 0.0], [248.0882654671717, 0.0], [249.52272727272728, 0.0], [251.45174400252526, 0.0], [251.7025726010101, 0.0], [251.75122316919192, 0.0], [252.00019728535352, 0.0], [252.2674005681818, 0.0], [252.24617266414143, 0.0], [251.8427241161616, 0.0], [251.91500946969697, 0.0], [251.05875157828282, 0.0], [249.8387389520202, 0.0], [249.697601010101, 0.0], [249.91544349747474, 0.0], [250.130523989899, 0.0], [250.52122790404042, 0.0], [250.63024779040404, 0.0], [250.67250631313132, 0.0], [250.88529829545453, 0.0], [250.97222222222223, 0.0], [251.3042140151515, 0.0], [251.57129892676767, 0.0], [251.7919034090909, 0.0], [251.8292297979798, 0.0], [250.65636837121212, 0.0], [249.38139204545453, 0.0], [247.91055082070707, 0.0], [248.1416903409091, 0.0], [248.94775883838383, 0.0], [250.25631313131314, 0.0], [250.4062105429293, 0.0], [250.48705808080808, 0.0], [250.65550031565655, 0.0], [250.95714962121212, 0.0], [251.20020517676767, 0.0], [251.4888731060606, 0.0], [251.67305871212122, 0.0], [251.7052556818182, 0.0], [250.43067392676767, 0.0], [249.40660511363637, 0.0], [249.37361900252526, 0.0], [249.46673768939394, 0.0], [249.63821811868686, 0.0], [249.9677241161616, 0.0], [250.0752840909091, 0.0], [250.22115688131314, 0.0], [250.4481928661616, 0.0], [250.64693813131314, 0.0], [251.0317234848485, 0.0], [251.12507891414143, 0.0], [251.40198863636363, 0.0], [251.44077493686868, 0.0], [250.63257575757575, 0.0], [249.29225852272728, 0.0], [249.08858112373738, 0.0], [249.21681660353536, 0.0], [249.41654829545453, 0.0], [249.60416666666666, 0.0], [249.7177241161616, 0.0], [249.78267045454547, 0.0], [250.0095880681818, 0.0], [250.18757891414143, 0.0], [250.52829071969697, 0.0], [250.78274936868686, 0.0], [250.920257260101, 0.0], [251.03701073232324, 0.0], [250.9705255681818, 0.0], [249.78874684343435, 0.0], [248.76649305555554, 0.0], [248.8231139520202, 0.0], [249.0625, 0.0], [249.26534880050505, 0.0], [249.54517834595958, 0.0], [249.62618371212122, 0.0], [249.73792613636363, 0.0], [249.94053819444446, 0.0], [250.3109217171717, 0.0], [250.54553345959596, 0.0], [250.8163667929293, 0.0], [250.9184422348485, 0.0], [251.0853851010101, 0.0], [250.34367108585857, 0.0], [249.00686553030303, 0.0], [248.86679292929293, 0.0], [249.0524384469697, 0.0], [249.14831912878788, 0.0], [249.49439709595958, 0.0], [249.54991319444446, 0.0], [249.6192787247475, 0.0], [249.82773042929293, 0.0], [250.18169981060606, 0.0], [250.49033301767676, 0.0], [250.6596827651515, 0.0], [250.83451704545453, 0.0], [250.9983428030303, 0.0], [250.7286537247475, 0.0], [249.31178977272728, 0.0], [248.70663667929293, 0.0], [248.8203519570707, 0.0], [248.90013415404042, 0.0], [249.17045454545453, 0.0], [249.45789930555554, 0.0], [249.63577178030303, 0.0], [249.79592803030303, 0.0], [250.03633996212122, 0.0], [250.29983428030303, 0.0], [250.59911616161617, 0.0], [250.83420138888889, 0.0], [251.0557528409091, 0.0], [250.65214646464648, 0.0], [249.15297506313132, 0.0], [248.4776278409091, 0.0], [248.6261047979798, 0.0], [248.76834753787878, 0.0], [249.03495896464648, 0.0], [249.33357007575756, 0.0], [249.41946811868686, 0.0], [249.70138888888889, 0.0], [249.9614504419192, 0.0], [250.28416982323233, 0.0], [250.4921480429293, 0.0], [250.736663510101, 0.0], [250.8309264520202, 0.0], [250.87026515151516, 0.0], [249.92818813131314, 0.0], [248.2544586489899, 0.0], [247.91946811868686, 0.0], [248.5565025252525, 0.0], [249.63549558080808, 0.0], [249.92321654040404, 0.0], [250.0669981060606, 0.0], [250.21803977272728, 0.0], [250.52600220959596, 0.0], [250.771819760101, 0.0], [251.10179924242425, 0.0], [251.43899936868686, 0.0], [251.6361663510101, 0.0], [251.84635416666666, 0.0], [251.95142834595958, 0.0], [250.25011837121212, 0.0], [246.81175031565655, 0.0], [246.62847222222223, 0.0], [248.24419981060606, 0.0], [250.38186553030303, 0.0], [250.62409248737373, 0.0], [250.84118529040404, 0.0], [251.05512152777777, 0.0], [251.3727509469697, 0.0], [251.69270833333334, 0.0], [251.98236268939394, 0.0], [252.06632733585857, 0.0], [251.88608743686868, 0.0], [249.7946259469697, 0.0], [248.7325994318182, 0.0], [248.779632260101, 0.0], [249.1914457070707, 0.0], [249.29671717171718, 0.0], [249.4408143939394, 0.0], [249.63095801767676, 0.0], [249.90064709595958, 0.0], [250.13525883838383, 0.0], [250.51590119949495, 0.0], [250.86264993686868, 0.0], [251.20430871212122, 0.0], [251.3693181818182, 0.0], [251.53428819444446, 0.0], [251.4319365530303, 0.0], [250.08293876262627, 0.0], [249.05093907828282, 0.0], [249.02742266414143, 0.0], [249.20793876262627, 0.0], [249.28365688131314, 0.0], [249.38415404040404, 0.0], [249.63190498737373, 0.0], [249.73749210858585, 0.0], [249.87855113636363, 0.0], [250.2086095328283, 0.0], [250.48409880050505, 0.0], [250.69558869949495, 0.0], [250.89926609848484, 0.0], [250.92447916666666, 0.0], [249.91370738636363, 0.0], [248.68899936868686, 0.0], [248.60503472222223, 0.0], [248.69515467171718, 0.0], [248.79659880050505, 0.0], [249.15897253787878, 0.0], [249.41532512626262, 0.0], [249.56277619949495, 0.0], [249.7025331439394, 0.0], [250.0921717171717, 0.0], [250.21504103535352, 0.0], [250.5138494318182, 0.0], [250.70221748737373, 0.0], [250.7628235479798, 0.0], [249.93935448232324, 0.0], [248.50919349747474, 0.0], [248.28132891414143, 0.0], [248.42507102272728, 0.0], [249.263336489899, 0.0], [250.37653882575756, 0.0], [250.56577493686868, 0.0], [250.73019255050505, 0.0], [250.9833096590909, 0.0], [251.3626893939394, 0.0], [251.64299242424244, 0.0], [251.8041745580808, 0.0], [251.86205808080808, 0.0], [250.1182133838384, 0.0], [247.3536537247475, 0.0], [247.5262389520202, 0.0], [249.18390940656565, 0.0], [251.64749053030303, 0.0], [251.70888573232324, 0.0], [251.76779513888889, 0.0], [251.22387941919192, 0.0], [251.5211884469697, 0.0], [251.73125789141415, 0.0], [251.9430634469697, 0.0], [251.8577178030303, 0.0], [249.9871764520202, 0.0], [248.27122790404042, 0.0], [248.69965277777777, 0.0], [248.82851957070707, 0.0], [249.10681029040404, 0.0], [249.31395991161617, 0.0], [249.3715672348485, 0.0], [249.41642992424244, 0.0], [249.6211332070707, 0.0], [249.7812105429293, 0.0], [250.2127525252525, 0.0], [250.3989109848485, 0.0], [250.62464488636363, 0.0], [250.7276672979798, 0.0], [250.24704071969697, 0.0], [248.7505918560606, 0.0], [248.3900726010101, 0.0], [248.8303740530303, 0.0], [249.7064788510101, 0.0], [250.62973484848484, 0.0], [250.69184027777777, 0.0], [250.84359217171718, 0.0], [250.93607954545453, 0.0], [251.0430082070707, 0.0], [251.3689630681818, 0.0], [251.50078914141415, 0.0], [251.78720801767676, 0.0], [251.91524621212122, 0.0], [252.0000394570707, 0.0], [251.39658301767676, 0.0], [248.892913510101, 0.0], [246.44180082070707, 0.0], [246.59745896464648, 0.0], [247.56100063131314, 0.0], [248.92309816919192, 0.0], [249.10243055555554, 0.0], [249.14772727272728, 0.0], [249.23926767676767, 0.0], [249.623382260101, 0.0], [249.7611663510101, 0.0], [250.19594381313132, 0.0], [250.41232638888889, 0.0], [250.67479482323233, 0.0], [250.46121369949495, 0.0], [249.11138731060606, 0.0], [248.11343907828282, 0.0], [248.15668402777777, 0.0], [248.3927162247475, 0.0], [249.0413115530303, 0.0], [250.15494791666666, 0.0], [250.3003077651515, 0.0], [250.4497316919192, 0.0], [250.6830808080808, 0.0], [250.9793244949495, 0.0], [251.33637152777777, 0.0], [251.57694128787878, 0.0], [251.80445075757575, 0.0], [252.10752051767676, 0.0], [252.10929608585857, 0.0], [251.07788825757575, 0.0], [248.95071811868686, 0.0], [246.86939709595958, 0.0], [247.0312894570707, 0.0], [247.93951231060606, 0.0], [249.28866792929293, 0.0], [249.33128156565655, 0.0], [249.4681976010101, 0.0], [249.66721906565655, 0.0], [250.00217013888889, 0.0], [250.2416351010101, 0.0], [250.58471433080808, 0.0], [250.7588383838384, 0.0], [250.88652146464648, 0.0]]
[[249.99127998737373, 0.0], [248.37073863636363, 0.0], [247.75576073232324, 0.0], [247.90755208333334, 0.0], [248.3292297979798, 0.0], [248.50998263888889, 0.0], [248.62038352272728, 0.0], [248.67589962121212, 0.0], [248.83984375, 0.0], [249.08211016414143, 0.0], [249.44898200757575, 0.0], [249.79549400252526, 0.0], [250.0730744949495, 0.0], [250.28969381313132, 0.0], [250.025726010101, 0.0], [248.4519807449495, 0.0], [247.52252998737373, 0.0], [247.71101641414143, 0.0], [248.4541508838384, 0.0], [249.50489267676767, 0.0], [249.5870028409091, 0.0], [249.7283775252525, 0.0], [249.84284248737373, 0.0], [250.07023358585857, 0.0], [250.3404356060606, 0.0], [250.60854640151516, 0.0], [250.95947758838383, 0.0], [251.06269728535352, 0.0], [250.92988478535352, 0.0], [249.55011047979798, 0.0], [248.85570549242425, 0.0], [248.90044981060606, 0.0], [249.01092960858585, 0.0], [249.1422821969697, 0.0], [249.56952335858585, 0.0], [249.67317708333334, 0.0], [249.9229403409091, 0.0], [250.12768308080808, 0.0], [250.52099116161617, 0.0], [250.7833412247475, 0.0], [251.12357954545453, 0.0], [251.25130208333334, 0.0], [251.37748579545453, 0.0], [250.3466303661616, 0.0], [249.0903961489899, 0.0], [249.00019728535352, 0.0], [249.1032196969697, 0.0], [249.29166666666666, 0.0], [249.65557922979798, 0.0], [249.8382654671717, 0.0], [249.90530303030303, 0.0], [250.1622869318182, 0.0], [250.48907039141415, 0.0], [250.86600378787878, 0.0], [251.09244791666666, 0.0], [251.35633680555554, 0.0], [251.51444128787878, 0.0], [251.41670612373738, 0.0], [250.0645912247475, 0.0], [249.07729640151516, 0.0], [249.11971275252526, 0.0], [249.33510890151516, 0.0], [249.4804292929293, 0.0], [249.7767518939394, 0.0], [249.96657986111111, 0.0], [250.02537089646464, 0.0], [250.24782986111111, 0.0], [250.587555239899, 0.0], [250.92980587121212, 0.0], [251.12859059343435, 0.0], [251.48690025252526, 0.0], [251.72419507575756, 0.0], [251.81609059343435, 0.0], [250.74708017676767, 0.0], [249.5233980429293, 0.0], [249.4034090909091, 0.0], [249.61564867424244, 0.0], [249.7895754419192, 0.0], [250.02907986111111, 0.0], [250.12630208333334, 0.0], [250.14382102272728, 0.0], [250.27690972222223, 0.0], [250.66536458333334, 0.0], [250.8961884469697, 0.0], [251.20557133838383, 0.0], [251.46859217171718, 0.0], [251.72675978535352, 0.0], [251.73409880050505, 0.0], [250.9370265151515, 0.0], [249.4502446338384, 0.0], [249.22435290404042, 0.0], [249.35523200757575, 0.0], [249.5629734848485, 0.0], [249.72285353535352, 0.0], [249.8654119318182, 0.0], [249.85168087121212, 0.0], [249.88521938131314, 0.0], [250.03144728535352, 0.0], [250.4274384469697, 0.0], [250.63076073232324, 0.0], [250.86675347222223, 0.0], [251.1110321969697, 0.0], [250.89307133838383, 0.0], [249.45924084595958, 0.0], [248.6249605429293, 0.0], [248.70320391414143, 0.0], [248.92783301767676, 0.0], [249.07453440656565, 0.0], [249.4915956439394, 0.0], [249.7042297979798, 0.0], [249.90155460858585, 0.0], [250.15321180555554, 0.0], [250.50426136363637, 0.0], [250.8559816919192, 0.0], [251.18828914141415, 0.0], [251.41781092171718, 0.0], [251.63024779040404, 0.0], [251.36647727272728, 0.0], [249.85677083333334, 0.0], [248.97829861111111, 0.0], [249.07836174242425, 0.0], [249.36801609848484, 0.0], [249.57682291666666, 0.0], [249.90873579545453, 0.0], [250.07169349747474, 0.0], [250.2008759469697, 0.0], [250.44345801767676, 0.0], [250.81376262626262, 0.0], [251.1411379419192, 0.0], [251.38940183080808, 0.0], [251.52864583333334, 0.0], [251.5888178661616, 0.0], [250.3158143939394, 0.0], [246.60787563131314, 0.0], [245.85866477272728, 0.0], [247.50564236111111, 0.0], [249.8187342171717, 0.0], [249.93659248737373, 0.0], [250.25217013888889, 0.0], [250.3185369318182, 0.0], [250.39812184343435, 0.0], [250.69985006313132, 0.0], [251.02252998737373, 0.0], [251.23007417929293, 0.0], [251.53922032828282, 0.0], [251.64820075757575, 0.0], [251.83562184343435, 0.0], [250.77324021464648, 0.0], [248.0167692550505, 0.0], [247.9180082070707, 0.0], [249.51945233585857, 0.0], [251.4937657828283, 0.0], [251.7020596590909, 0.0], [251.79943970959596, 0.0], [251.9810606060606, 0.0], [252.31368371212122, 0.0], [252.37878787878788, 0.0], [252.14157196969697, 0.0], [252.20501893939394, 0.0], [251.98697916666666, 0.0], [249.33506944444446, 0.0], [248.18493529040404, 0.0], [248.1747553661616, 0.0], [248.34678819444446, 0.0], [248.64551767676767, 0.0], [248.90561868686868, 0.0], [248.99743529040404, 0.0], [249.26605902777777, 0.0], [249.4436553030303, 0.0], [249.80007102272728, 0.0], [250.09221117424244, 0.0], [250.40561868686868, 0.0], [250.59122474747474, 0.0], [250.28839172979798, 0.0], [248.57323232323233, 0.0], [247.7918244949495, 0.0], [247.9190735479798, 0.0], [248.82445549242425, 0.0], [250.0145991161616, 0.0], [250.27193813131314, 0.0], [250.43600063131314, 0.0], [250.51878156565655, 0.0], [250.76964962121212, 0.0], [251.0741792929293, 0.0], [251.3270202020202, 0.0], [251.66646938131314, 0.0], [251.84248737373738, 0.0], [251.79644097222223, 0.0], [250.4174163510101, 0.0], [249.1885258838384, 0.0], [247.66895517676767, 0.0], [247.8499053030303, 0.0], [249.3800110479798, 0.0], [251.30389835858585, 0.0], [251.52529198232324, 0.0], [251.6886442550505, 0.0], [251.9843355429293, 0.0], [252.34528882575756, 0.0], [252.290680239899, 0.0], [251.78657670454547, 0.0], [251.7957702020202, 0.0], [250.6260258838384, 0.0], [249.43430397727272, 0.0], [249.40388257575756, 0.0], [249.68386994949495, 0.0], [249.87969539141415, 0.0], [250.22435290404042, 0.0], [250.25607638888889, 0.0], [250.52205650252526, 0.0], [250.8901515151515, 0.0], [251.00082859848484, 0.0], [251.22747001262627, 0.0], [251.39831912878788, 0.0], [251.65747316919192, 0.0], [251.80926452020202, 0.0], [251.3246922348485, 0.0], [249.7896543560606, 0.0], [247.85452178030303, 0.0], [248.0882654671717, 0.0], [249.52272727272728, 0.0], [251.45174400252526, 0.0], [251.7025726010101, 0.0], [251.75122316919192, 0.0], [252.00019728535352, 0.0], [252.2674005681818, 0.0], [252.24617266414143, 0.0], [251.8427241161616, 0.0], [251.91500946969697, 0.0], [251.05875157828282, 0.0], [249.8387389520202, 0.0], [249.697601010101, 0.0], [249.91544349747474, 0.0], [250.130523989899, 0.0], [250.52122790404042, 0.0], [250.63024779040404, 0.0], [250.67250631313132, 0.0], [250.88529829545453, 0.0], [250.97222222222223, 0.0], [251.3042140151515, 0.0], [251.57129892676767, 0.0], [251.7919034090909, 0.0], [251.8292297979798, 0.0], [250.65636837121212, 0.0], [249.38139204545453, 0.0], [247.91055082070707, 0.0], [248.1416903409091, 0.0], [248.94775883838383, 0.0], [250.25631313131314, 0.0], [250.4062105429293, 0.0], [250.48705808080808, 0.0], [250.65550031565655, 0.0], [250.95714962121212, 0.0], [251.20020517676767, 0.0], [251.4888731060606, 0.0], [251.67305871212122, 0.0], [251.7052556818182, 0.0], [250.43067392676767, 0.0], [249.40660511363637, 0.0], [249.37361900252526, 0.0], [249.46673768939394, 0.0], [249.63821811868686, 0.0], [249.9677241161616, 0.0], [250.0752840909091, 0.0], [250.22115688131314, 0.0], [250.4481928661616, 0.0], [250.64693813131314, 0.0], [251.0317234848485, 0.0], [251.12507891414143, 0.0], [251.40198863636363, 0.0], [251.44077493686868, 0.0], [250.63257575757575, 0.0], [249.29225852272728, 0.0], [249.08858112373738, 0.0], [249.21681660353536, 0.0], [249.41654829545453, 0.0], [249.60416666666666, 0.0], [249.7177241161616, 0.0], [249.78267045454547, 0.0], [250.0095880681818, 0.0], [250.18757891414143, 0.0], [250.52829071969697, 0.0], [250.78274936868686, 0.0], [250.920257260101, 0.0], [251.03701073232324, 0.0], [250.9705255681818, 0.0], [249.78874684343435, 0.0], [248.76649305555554, 0.0], [248.8231139520202, 0.0], [249.0625, 0.0], [249.26534880050505, 0.0], [249.54517834595958, 0.0], [249.62618371212122, 0.0], [249.73792613636363, 0.0], [249.94053819444446, 0.0], [250.3109217171717, 0.0], [250.54553345959596, 0.0], [250.8163667929293, 0.0], [250.9184422348485, 0.0], [251.0853851010101, 0.0], [250.34367108585857, 0.0], [249.00686553030303, 0.0], [248.86679292929293, 0.0], [249.0524384469697, 0.0], [249.14831912878788, 0.0], [249.49439709595958, 0.0], [249.54991319444446, 0.0], [249.6192787247475, 0.0], [249.82773042929293, 0.0], [250.18169981060606, 0.0], [250.49033301767676, 0.0], [250.6596827651515, 0.0], [250.83451704545453, 0.0], [250.9983428030303, 0.0], [250.7286537247475, 0.0], [249.31178977272728, 0.0], [248.70663667929293, 0.0], [248.8203519570707, 0.0], [248.90013415404042, 0.0], [249.17045454545453, 0.0], [249.45789930555554, 0.0], [249.63577178030303, 0.0], [249.79592803030303, 0.0], [250.03633996212122, 0.0], [250.29983428030303, 0.0], [250.59911616161617, 0.0], [250.83420138888889, 0.0], [251.0557528409091, 0.0], [250.65214646464648, 0.0], [249.15297506313132, 0.0], [248.4776278409091, 0.0], [248.6261047979798, 0.0], [248.76834753787878, 0.0], [249.03495896464648, 0.0], [249.33357007575756, 0.0], [249.41946811868686, 0.0], [249.70138888888889, 0.0], [249.9614504419192, 0.0], [250.28416982323233, 0.0], [250.4921480429293, 0.0], [250.736663510101, 0.0], [250.8309264520202, 0.0], [250.87026515151516, 0.0], [249.92818813131314, 0.0], [248.2544586489899, 0.0], [247.91946811868686, 0.0], [248.5565025252525, 0.0], [249.63549558080808, 0.0], [249.92321654040404, 0.0], [250.0669981060606, 0.0], [250.21803977272728, 0.0], [250.52600220959596, 0.0], [250.771819760101, 0.0], [251.10179924242425, 0.0], [251.43899936868686, 0.0], [251.6361663510101, 0.0], [251.84635416666666, 0.0], [251.95142834595958, 0.0], [250.25011837121212, 0.0], [246.81175031565655, 0.0], [246.62847222222223, 0.0], [248.24419981060606, 0.0], [250.38186553030303, 0.0], [250.62409248737373, 0.0], [250.84118529040404, 0.0], [251.05512152777777, 0.0], [251.3727509469697, 0.0], [251.69270833333334, 0.0], [251.98236268939394, 0.0], [252.06632733585857, 0.0], [251.88608743686868, 0.0], [249.7946259469697, 0.0], [248.7325994318182, 0.0], [248.779632260101, 0.0], [249.1914457070707, 0.0], [249.29671717171718, 0.0], [249.4408143939394, 0.0], [249.63095801767676, 0.0], [249.90064709595958, 0.0], [250.13525883838383, 0.0], [250.51590119949495, 0.0], [250.86264993686868, 0.0], [251.20430871212122, 0.0], [251.3693181818182, 0.0], [251.53428819444446, 0.0], [251.4319365530303, 0.0], [250.08293876262627, 0.0], [249.05093907828282, 0.0], [249.02742266414143, 0.0], [249.20793876262627, 0.0], [249.28365688131314, 0.0], [249.38415404040404, 0.0], [249.63190498737373, 0.0], [249.73749210858585, 0.0], [249.87855113636363, 0.0], [250.2086095328283, 0.0], [250.48409880050505, 0.0], [250.69558869949495, 0.0], [250.89926609848484, 0.0], [250.92447916666666, 0.0], [249.91370738636363, 0.0], [248.68899936868686, 0.0], [248.60503472222223, 0.0], [248.69515467171718, 0.0], [248.79659880050505, 0.0], [249.15897253787878, 0.0], [249.41532512626262, 0.0], [249.56277619949495, 0.0], [249.7025331439394, 0.0], [250.0921717171717, 0.0], [250.21504103535352, 0.0], [250.5138494318182, 0.0], [250.70221748737373, 0.0], [250.7628235479798, 0.0], [249.93935448232324, 0.0], [248.50919349747474, 0.0], [248.28132891414143, 0.0], [248.42507102272728, 0.0], [249.263336489899, 0.0], [250.37653882575756, 0.0], [250.56577493686868, 0.0], [250.73019255050505, 0.0], [250.9833096590909, 0.0], [251.3626893939394, 0.0], [251.64299242424244, 0.0], [251.8041745580808, 0.0], [251.86205808080808, 0.0], [250.1182133838384, 0.0], [247.3536537247475, 0.0], [247.5262389520202, 0.0], [249.18390940656565, 0.0], [251.64749053030303, 0.0], [251.70888573232324, 0.0], [251.76779513888889, 0.0], [251.22387941919192, 0.0], [251.5211884469697, 0.0], [251.73125789141415, 0.0], [251.9430634469697, 0.0], [251.8577178030303, 0.0], [249.9871764520202, 0.0], [248.27122790404042, 0.0], [248.69965277777777, 0.0], [248.82851957070707, 0.0], [249.10681029040404, 0.0], [249.31395991161617, 0.0], [249.3715672348485, 0.0], [249.41642992424244, 0.0], [249.6211332070707, 0.0], [249.7812105429293, 0.0], [250.2127525252525, 0.0], [250.3989109848485, 0.0], [250.62464488636363, 0.0], [250.7276672979798, 0.0], [250.24704071969697, 0.0], [248.7505918560606, 0.0], [248.3900726010101, 0.0], [248.8303740530303, 0.0], [249.7064788510101, 0.0], [250.62973484848484, 0.0], [250.69184027777777, 0.0], [250.84359217171718, 0.0], [250.93607954545453, 0.0], [251.0430082070707, 0.0], [251.3689630681818, 0.0], [251.50078914141415, 0.0], [251.78720801767676, 0.0], [251.91524621212122, 0.0], [252.0000394570707, 0.0], [251.39658301767676, 0.0], [248.892913510101, 0.0], [246.44180082070707, 0.0], [246.59745896464648, 0.0], [247.56100063131314, 0.0], [248.92309816919192, 0.0], [249.10243055555554, 0.0], [249.14772727272728, 0.0], [249.23926767676767, 0.0], [249.623382260101, 0.0], [249.7611663510101, 0.0], [250.19594381313132, 0.0], [250.41232638888889, 0.0], [250.67479482323233, 0.0], [250.46121369949495, 0.0], [249.11138731060606, 0.0], [248.11343907828282, 0.0], [248.15668402777777, 0.0], [248.3927162247475, 0.0], [249.0413115530303, 0.0], [250.15494791666666, 0.0], [250.3003077651515, 0.0], [250.4497316919192, 0.0], [250.6830808080808, 0.0], [250.9793244949495, 0.0], [251.33637152777777, 0.0], [251.57694128787878, 0.0], [251.80445075757575, 0.0], [252.10752051767676, 0.0], [252.10929608585857, 0.0], [251.07788825757575, 0.0], [248.95071811868686, 0.0], [246.86939709595958, 0.0], [247.0312894570707, 0.0], [247.93951231060606, 0.0], [249.28866792929293, 0.0], [249.33128156565655, 0.0], [249.4681976010101, 0.0], [249.66721906565655, 0.0], [250.00217013888889, 0.0], [250.2416351010101, 0.0], [250.58471433080808, 0.0], [250.7588383838384, 0.0], [250.88652146464648, 0.0], [251.19278724747474, 0.0]]
[[248.37073863636363, 0.0], [247.75576073232324, 0.0], [247.90755208333334, 0.0], [248.3292297979798, 0.0], [248.50998263888889, 0.0], [248.62038352272728, 0.0], [248.67589962121212, 0.0], [248.83984375, 0.0], [249.08211016414143, 0.0], [249.44898200757575, 0.0], [249.79549400252526, 0.0], [250.0730744949495, 0.0], [250.28969381313132, 0.0], [250.025726010101, 0.0], [248.4519807449495, 0.0], [247.52252998737373, 0.0], [247.71101641414143, 0.0], [248.4541508838384, 0.0], [249.50489267676767, 0.0], [249.5870028409091, 0.0], [249.7283775252525, 0.0], [249.84284248737373, 0.0], [250.07023358585857, 0.0], [250.3404356060606, 0.0], [250.60854640151516, 0.0], [250.95947758838383, 0.0], [251.06269728535352, 0.0], [250.92988478535352, 0.0], [249.55011047979798, 0.0], [248.85570549242425, 0.0], [248.90044981060606, 0.0], [249.01092960858585, 0.0], [249.1422821969697, 0.0], [249.56952335858585, 0.0], [249.67317708333334, 0.0], [249.9229403409091, 0.0], [250.12768308080808, 0.0], [250.52099116161617, 0.0], [250.7833412247475, 0.0], [251.12357954545453, 0.0], [251.25130208333334, 0.0], [251.37748579545453, 0.0], [250.3466303661616, 0.0], [249.0903961489899, 0.0], [249.00019728535352, 0.0], [249.1032196969697, 0.0], [249.29166666666666, 0.0], [249.65557922979798, 0.0], [249.8382654671717, 0.0], [249.90530303030303, 0.0], [250.1622869318182, 0.0], [250.48907039141415, 0.0], [250.86600378787878, 0.0], [251.09244791666666, 0.0], [251.35633680555554, 0.0], [251.51444128787878, 0.0], [251.41670612373738, 0.0], [250.0645912247475, 0.0], [249.07729640151516, 0.0], [249.11971275252526, 0.0], [249.33510890151516, 0.0], [249.4804292929293, 0.0], [249.7767518939394, 0.0], [249.96657986111111, 0.0], [250.02537089646464, 0.0], [250.24782986111111, 0.0], [250.587555239899, 0.0], [250.92980587121212, 0.0], [251.12859059343435, 0.0], [251.48690025252526, 0.0], [251.72419507575756, 0.0], [251.81609059343435, 0.0], [250.74708017676767, 0.0], [249.5233980429293, 0.0], [249.4034090909091, 0.0], [249.61564867424244, 0.0], [249.7895754419192, 0.0], [250.02907986111111, 0.0], [250.12630208333334, 0.0], [250.14382102272728, 0.0], [250.27690972222223, 0.0], [250.66536458333334, 0.0], [250.8961884469697, 0.0], [251.20557133838383, 0.0], [251.46859217171718, 0.0], [251.72675978535352, 0.0], [251.73409880050505, 0.0], [250.9370265151515, 0.0], [249.4502446338384, 0.0], [249.22435290404042, 0.0], [249.35523200757575, 0.0], [249.5629734848485, 0.0], [249.72285353535352, 0.0], [249.8654119318182, 0.0], [249.85168087121212, 0.0], [249.88521938131314, 0.0], [250.03144728535352, 0.0], [250.4274384469697, 0.0], [250.63076073232324, 0.0], [250.86675347222223, 0.0], [251.1110321969697, 0.0], [250.89307133838383, 0.0], [249.45924084595958, 0.0], [248.6249605429293, 0.0], [248.70320391414143, 0.0], [248.92783301767676, 0.0], [249.07453440656565, 0.0], [249.4915956439394, 0.0], [249.7042297979798, 0.0], [249.90155460858585, 0.0], [250.15321180555554, 0.0], [250.50426136363637, 0.0], [250.8559816919192, 0.0], [251.18828914141415, 0.0], [251.41781092171718, 0.0], [251.63024779040404, 0.0], [251.36647727272728, 0.0], [249.85677083333334, 0.0], [248.97829861111111, 0.0], [249.07836174242425, 0.0], [249.36801609848484, 0.0], [249.57682291666666, 0.0], [249.90873579545453, 0.0], [250.07169349747474, 0.0], [250.2008759469697, 0.0], [250.44345801767676, 0.0], [250.81376262626262, 0.0], [251.1411379419192, 0.0], [251.38940183080808, 0.0], [251.52864583333334, 0.0], [251.5888178661616, 0.0], [250.3158143939394, 0.0], [246.60787563131314, 0.0], [245.85866477272728, 0.0], [247.50564236111111, 0.0], [249.8187342171717, 0.0], [249.93659248737373, 0.0], [250.25217013888889, 0.0], [250.3185369318182, 0.0], [250.39812184343435, 0.0], [250.69985006313132, 0.0], [251.02252998737373, 0.0], [251.23007417929293, 0.0], [251.53922032828282, 0.0], [251.64820075757575, 0.0], [251.83562184343435, 0.0], [250.77324021464648, 0.0], [248.0167692550505, 0.0], [247.9180082070707, 0.0], [249.51945233585857, 0.0], [251.4937657828283, 0.0], [251.7020596590909, 0.0], [251.79943970959596, 0.0], [251.9810606060606, 0.0], [252.31368371212122, 0.0], [252.37878787878788, 0.0], [252.14157196969697, 0.0], [252.20501893939394, 0.0], [251.98697916666666, 0.0], [249.33506944444446, 0.0], [248.18493529040404, 0.0], [248.1747553661616, 0.0], [248.34678819444446, 0.0], [248.64551767676767, 0.0], [248.90561868686868, 0.0], [248.99743529040404, 0.0], [249.26605902777777, 0.0], [249.4436553030303, 0.0], [249.80007102272728, 0.0], [250.09221117424244, 0.0], [250.40561868686868, 0.0], [250.59122474747474, 0.0], [250.28839172979798, 0.0], [248.57323232323233, 0.0], [247.7918244949495, 0.0], [247.9190735479798, 0.0], [248.82445549242425, 0.0], [250.0145991161616, 0.0], [250.27193813131314, 0.0], [250.43600063131314, 0.0], [250.51878156565655, 0.0], [250.76964962121212, 0.0], [251.0741792929293, 0.0], [251.3270202020202, 0.0], [251.66646938131314, 0.0], [251.84248737373738, 0.0], [251.79644097222223, 0.0], [250.4174163510101, 0.0], [249.1885258838384, 0.0], [247.66895517676767, 0.0], [247.8499053030303, 0.0], [249.3800110479798, 0.0], [251.30389835858585, 0.0], [251.52529198232324, 0.0], [251.6886442550505, 0.0], [251.9843355429293, 0.0], [252.34528882575756, 0.0], [252.290680239899, 0.0], [251.78657670454547, 0.0], [251.7957702020202, 0.0], [250.6260258838384, 0.0], [249.43430397727272, 0.0], [249.40388257575756, 0.0], [249.68386994949495, 0.0], [249.87969539141415, 0.0], [250.22435290404042, 0.0], [250.25607638888889, 0.0], [250.52205650252526, 0.0], [250.8901515151515, 0.0], [251.00082859848484, 0.0], [251.22747001262627, 0.0], [251.39831912878788, 0.0], [251.65747316919192, 0.0], [251.80926452020202, 0.0], [251.3246922348485, 0.0], [249.7896543560606, 0.0], [247.85452178030303, 0.0], [248.0882654671717, 0.0], [249.52272727272728, 0.0], [251.45174400252526, 0.0], [251.7025726010101, 0.0], [251.75122316919192, 0.0], [252.00019728535352, 0.0], [252.2674005681818, 0.0], [252.24617266414143, 0.0], [251.8427241161616, 0.0], [251.91500946969697, 0.0], [251.05875157828282, 0.0], [249.8387389520202, 0.0], [249.697601010101, 0.0], [249.91544349747474, 0.0], [250.130523989899, 0.0], [250.52122790404042, 0.0], [250.63024779040404, 0.0], [250.67250631313132, 0.0], [250.88529829545453, 0.0], [250.97222222222223, 0.0], [251.3042140151515, 0.0], [251.57129892676767, 0.0], [251.7919034090909, 0.0], [251.8292297979798, 0.0], [250.65636837121212, 0.0], [249.38139204545453, 0.0], [247.91055082070707, 0.0], [248.1416903409091, 0.0], [248.94775883838383, 0.0], [250.25631313131314, 0.0], [250.4062105429293, 0.0], [250.48705808080808, 0.0], [250.65550031565655, 0.0], [250.95714962121212, 0.0], [251.20020517676767, 0.0], [251.4888731060606, 0.0], [251.67305871212122, 0.0], [251.7052556818182, 0.0], [250.43067392676767, 0.0], [249.40660511363637, 0.0], [249.37361900252526, 0.0], [249.46673768939394, 0.0], [249.63821811868686, 0.0], [249.9677241161616, 0.0], [250.0752840909091, 0.0], [250.22115688131314, 0.0], [250.4481928661616, 0.0], [250.64693813131314, 0.0], [251.0317234848485, 0.0], [251.12507891414143, 0.0], [251.40198863636363, 0.0], [251.44077493686868, 0.0], [250.63257575757575, 0.0], [249.29225852272728, 0.0], [249.08858112373738, 0.0], [249.21681660353536, 0.0], [249.41654829545453, 0.0], [249.60416666666666, 0.0], [249.7177241161616, 0.0], [249.78267045454547, 0.0], [250.0095880681818, 0.0], [250.18757891414143, 0.0], [250.52829071969697, 0.0], [250.78274936868686, 0.0], [250.920257260101, 0.0], [251.03701073232324, 0.0], [250.9705255681818, 0.0], [249.78874684343435, 0.0], [248.76649305555554, 0.0], [248.8231139520202, 0.0], [249.0625, 0.0], [249.26534880050505, 0.0], [249.54517834595958, 0.0], [249.62618371212122, 0.0], [249.73792613636363, 0.0], [249.94053819444446, 0.0], [250.3109217171717, 0.0], [250.54553345959596, 0.0], [250.8163667929293, 0.0], [250.9184422348485, 0.0], [251.0853851010101, 0.0], [250.34367108585857, 0.0], [249.00686553030303, 0.0], [248.86679292929293, 0.0], [249.0524384469697, 0.0], [249.14831912878788, 0.0], [249.49439709595958, 0.0], [249.54991319444446, 0.0], [249.6192787247475, 0.0], [249.82773042929293, 0.0], [250.18169981060606, 0.0], [250.49033301767676, 0.0], [250.6596827651515, 0.0], [250.83451704545453, 0.0], [250.9983428030303, 0.0], [250.7286537247475, 0.0], [249.31178977272728, 0.0], [248.70663667929293, 0.0], [248.8203519570707, 0.0], [248.90013415404042, 0.0], [249.17045454545453, 0.0], [249.45789930555554, 0.0], [249.63577178030303, 0.0], [249.79592803030303, 0.0], [250.03633996212122, 0.0], [250.29983428030303, 0.0], [250.59911616161617, 0.0], [250.83420138888889, 0.0], [251.0557528409091, 0.0], [250.65214646464648, 0.0], [249.15297506313132, 0.0], [248.4776278409091, 0.0], [248.6261047979798, 0.0], [248.76834753787878, 0.0], [249.03495896464648, 0.0], [249.33357007575756, 0.0], [249.41946811868686, 0.0], [249.70138888888889, 0.0], [249.9614504419192, 0.0], [250.28416982323233, 0.0], [250.4921480429293, 0.0], [250.736663510101, 0.0], [250.8309264520202, 0.0], [250.87026515151516, 0.0], [249.92818813131314, 0.0], [248.2544586489899, 0.0], [247.91946811868686, 0.0], [248.5565025252525, 0.0], [249.63549558080808, 0.0], [249.92321654040404, 0.0], [250.0669981060606, 0.0], [250.21803977272728, 0.0], [250.52600220959596, 0.0], [250.771819760101, 0.0], [251.10179924242425, 0.0], [251.43899936868686, 0.0], [251.6361663510101, 0.0], [251.84635416666666, 0.0], [251.95142834595958, 0.0], [250.25011837121212, 0.0], [246.81175031565655, 0.0], [246.62847222222223, 0.0], [248.24419981060606, 0.0], [250.38186553030303, 0.0], [250.62409248737373, 0.0], [250.84118529040404, 0.0], [251.05512152777777, 0.0], [251.3727509469697, 0.0], [251.69270833333334, 0.0], [251.98236268939394, 0.0], [252.06632733585857, 0.0], [251.88608743686868, 0.0], [249.7946259469697, 0.0], [248.7325994318182, 0.0], [248.779632260101, 0.0], [249.1914457070707, 0.0], [249.29671717171718, 0.0], [249.4408143939394, 0.0], [249.63095801767676, 0.0], [249.90064709595958, 0.0], [250.13525883838383, 0.0], [250.51590119949495, 0.0], [250.86264993686868, 0.0], [251.20430871212122, 0.0], [251.3693181818182, 0.0], [251.53428819444446, 0.0], [251.4319365530303, 0.0], [250.08293876262627, 0.0], [249.05093907828282, 0.0], [249.02742266414143, 0.0], [249.20793876262627, 0.0], [249.28365688131314, 0.0], [249.38415404040404, 0.0], [249.63190498737373, 0.0], [249.73749210858585, 0.0], [249.87855113636363, 0.0], [250.2086095328283, 0.0], [250.48409880050505, 0.0], [250.69558869949495, 0.0], [250.89926609848484, 0.0], [250.92447916666666, 0.0], [249.91370738636363, 0.0], [248.68899936868686, 0.0], [248.60503472222223, 0.0], [248.69515467171718, 0.0], [248.79659880050505, 0.0], [249.15897253787878, 0.0], [249.41532512626262, 0.0], [249.56277619949495, 0.0], [249.7025331439394, 0.0], [250.0921717171717, 0.0], [250.21504103535352, 0.0], [250.5138494318182, 0.0], [250.70221748737373, 0.0], [250.7628235479798, 0.0], [249.93935448232324, 0.0], [248.50919349747474, 0.0], [248.28132891414143, 0.0], [248.42507102272728, 0.0], [249.263336489899, 0.0], [250.37653882575756, 0.0], [250.56577493686868, 0.0], [250.73019255050505, 0.0], [250.9833096590909, 0.0], [251.3626893939394, 0.0], [251.64299242424244, 0.0], [251.8041745580808, 0.0], [251.86205808080808, 0.0], [250.1182133838384, 0.0], [247.3536537247475, 0.0], [247.5262389520202, 0.0], [249.18390940656565, 0.0], [251.64749053030303, 0.0], [251.70888573232324, 0.0], [251.76779513888889, 0.0], [251.22387941919192, 0.0], [251.5211884469697, 0.0], [251.73125789141415, 0.0], [251.9430634469697, 0.0], [251.8577178030303, 0.0], [249.9871764520202, 0.0], [248.27122790404042, 0.0], [248.69965277777777, 0.0], [248.82851957070707, 0.0], [249.10681029040404, 0.0], [249.31395991161617, 0.0], [249.3715672348485, 0.0], [249.41642992424244, 0.0], [249.6211332070707, 0.0], [249.7812105429293, 0.0], [250.2127525252525, 0.0], [250.3989109848485, 0.0], [250.62464488636363, 0.0], [250.7276672979798, 0.0], [250.24704071969697, 0.0], [248.7505918560606, 0.0], [248.3900726010101, 0.0], [248.8303740530303, 0.0], [249.7064788510101, 0.0], [250.62973484848484, 0.0], [250.69184027777777, 0.0], [250.84359217171718, 0.0], [250.93607954545453, 0.0], [251.0430082070707, 0.0], [251.3689630681818, 0.0], [251.50078914141415, 0.0], [251.78720801767676, 0.0], [251.91524621212122, 0.0], [252.0000394570707, 0.0], [251.39658301767676, 0.0], [248.892913510101, 0.0], [246.44180082070707, 0.0], [246.59745896464648, 0.0], [247.56100063131314, 0.0], [248.92309816919192, 0.0], [249.10243055555554, 0.0], [249.14772727272728, 0.0], [249.23926767676767, 0.0], [249.623382260101, 0.0], [249.7611663510101, 0.0], [250.19594381313132, 0.0], [250.41232638888889, 0.0], [250.67479482323233, 0.0], [250.46121369949495, 0.0], [249.11138731060606, 0.0], [248.11343907828282, 0.0], [248.15668402777777, 0.0], [248.3927162247475, 0.0], [249.0413115530303, 0.0], [250.15494791666666, 0.0], [250.3003077651515, 0.0], [250.4497316919192, 0.0], [250.6830808080808, 0.0], [250.9793244949495, 0.0], [251.33637152777777, 0.0], [251.57694128787878, 0.0], [251.80445075757575, 0.0], [252.10752051767676, 0.0], [252.10929608585857, 0.0], [251.07788825757575, 0.0], [248.95071811868686, 0.0], [246.86939709595958, 0.0], [247.0312894570707, 0.0], [247.93951231060606, 0.0], [249.28866792929293, 0.0], [249.33128156565655, 0.0], [249.4681976010101, 0.0], [249.66721906565655, 0.0], [250.00217013888889, 0.0], [250.2416351010101, 0.0], [250.58471433080808, 0.0], [250.7588383838384, 0.0], [250.88652146464648, 0.0], [251.19278724747474, 0.0], [250.58964646464648, 0.0]]
[[247.75576073232324, 0.0], [247.90755208333334, 0.0], [248.3292297979798, 0.0], [248.50998263888889, 0.0], [248.62038352272728, 0.0], [248.67589962121212, 0.0], [248.83984375, 0.0], [249.08211016414143, 0.0], [249.44898200757575, 0.0], [249.79549400252526, 0.0], [250.0730744949495, 0.0], [250.28969381313132, 0.0], [250.025726010101, 0.0], [248.4519807449495, 0.0], [247.52252998737373, 0.0], [247.71101641414143, 0.0], [248.4541508838384, 0.0], [249.50489267676767, 0.0], [249.5870028409091, 0.0], [249.7283775252525, 0.0], [249.84284248737373, 0.0], [250.07023358585857, 0.0], [250.3404356060606, 0.0], [250.60854640151516, 0.0], [250.95947758838383, 0.0], [251.06269728535352, 0.0], [250.92988478535352, 0.0], [249.55011047979798, 0.0], [248.85570549242425, 0.0], [248.90044981060606, 0.0], [249.01092960858585, 0.0], [249.1422821969697, 0.0], [249.56952335858585, 0.0], [249.67317708333334, 0.0], [249.9229403409091, 0.0], [250.12768308080808, 0.0], [250.52099116161617, 0.0], [250.7833412247475, 0.0], [251.12357954545453, 0.0], [251.25130208333334, 0.0], [251.37748579545453, 0.0], [250.3466303661616, 0.0], [249.0903961489899, 0.0], [249.00019728535352, 0.0], [249.1032196969697, 0.0], [249.29166666666666, 0.0], [249.65557922979798, 0.0], [249.8382654671717, 0.0], [249.90530303030303, 0.0], [250.1622869318182, 0.0], [250.48907039141415, 0.0], [250.86600378787878, 0.0], [251.09244791666666, 0.0], [251.35633680555554, 0.0], [251.51444128787878, 0.0], [251.41670612373738, 0.0], [250.0645912247475, 0.0], [249.07729640151516, 0.0], [249.11971275252526, 0.0], [249.33510890151516, 0.0], [249.4804292929293, 0.0], [249.7767518939394, 0.0], [249.96657986111111, 0.0], [250.02537089646464, 0.0], [250.24782986111111, 0.0], [250.587555239899, 0.0], [250.92980587121212, 0.0], [251.12859059343435, 0.0], [251.48690025252526, 0.0], [251.72419507575756, 0.0], [251.81609059343435, 0.0], [250.74708017676767, 0.0], [249.5233980429293, 0.0], [249.4034090909091, 0.0], [249.61564867424244, 0.0], [249.7895754419192, 0.0], [250.02907986111111, 0.0], [250.12630208333334, 0.0], [250.14382102272728, 0.0], [250.27690972222223, 0.0], [250.66536458333334, 0.0], [250.8961884469697, 0.0], [251.20557133838383, 0.0], [251.46859217171718, 0.0], [251.72675978535352, 0.0], [251.73409880050505, 0.0], [250.9370265151515, 0.0], [249.4502446338384, 0.0], [249.22435290404042, 0.0], [249.35523200757575, 0.0], [249.5629734848485, 0.0], [249.72285353535352, 0.0], [249.8654119318182, 0.0], [249.85168087121212, 0.0], [249.88521938131314, 0.0], [250.03144728535352, 0.0], [250.4274384469697, 0.0], [250.63076073232324, 0.0], [250.86675347222223, 0.0], [251.1110321969697, 0.0], [250.89307133838383, 0.0], [249.45924084595958, 0.0], [248.6249605429293, 0.0], [248.70320391414143, 0.0], [248.92783301767676, 0.0], [249.07453440656565, 0.0], [249.4915956439394, 0.0], [249.7042297979798, 0.0], [249.90155460858585, 0.0], [250.15321180555554, 0.0], [250.50426136363637, 0.0], [250.8559816919192, 0.0], [251.18828914141415, 0.0], [251.41781092171718, 0.0], [251.63024779040404, 0.0], [251.36647727272728, 0.0], [249.85677083333334, 0.0], [248.97829861111111, 0.0], [249.07836174242425, 0.0], [249.36801609848484, 0.0], [249.57682291666666, 0.0], [249.90873579545453, 0.0], [250.07169349747474, 0.0], [250.2008759469697, 0.0], [250.44345801767676, 0.0], [250.81376262626262, 0.0], [251.1411379419192, 0.0], [251.38940183080808, 0.0], [251.52864583333334, 0.0], [251.5888178661616, 0.0], [250.3158143939394, 0.0], [246.60787563131314, 0.0], [245.85866477272728, 0.0], [247.50564236111111, 0.0], [249.8187342171717, 0.0], [249.93659248737373, 0.0], [250.25217013888889, 0.0], [250.3185369318182, 0.0], [250.39812184343435, 0.0], [250.69985006313132, 0.0], [251.02252998737373, 0.0], [251.23007417929293, 0.0], [251.53922032828282, 0.0], [251.64820075757575, 0.0], [251.83562184343435, 0.0], [250.77324021464648, 0.0], [248.0167692550505, 0.0], [247.9180082070707, 0.0], [249.51945233585857, 0.0], [251.4937657828283, 0.0], [251.7020596590909, 0.0], [251.79943970959596, 0.0], [251.9810606060606, 0.0], [252.31368371212122, 0.0], [252.37878787878788, 0.0], [252.14157196969697, 0.0], [252.20501893939394, 0.0], [251.98697916666666, 0.0], [249.33506944444446, 0.0], [248.18493529040404, 0.0], [248.1747553661616, 0.0], [248.34678819444446, 0.0], [248.64551767676767, 0.0], [248.90561868686868, 0.0], [248.99743529040404, 0.0], [249.26605902777777, 0.0], [249.4436553030303, 0.0], [249.80007102272728, 0.0], [250.09221117424244, 0.0], [250.40561868686868, 0.0], [250.59122474747474, 0.0], [250.28839172979798, 0.0], [248.57323232323233, 0.0], [247.7918244949495, 0.0], [247.9190735479798, 0.0], [248.82445549242425, 0.0], [250.0145991161616, 0.0], [250.27193813131314, 0.0], [250.43600063131314, 0.0], [250.51878156565655, 0.0], [250.76964962121212, 0.0], [251.0741792929293, 0.0], [251.3270202020202, 0.0], [251.66646938131314, 0.0], [251.84248737373738, 0.0], [251.79644097222223, 0.0], [250.4174163510101, 0.0], [249.1885258838384, 0.0], [247.66895517676767, 0.0], [247.8499053030303, 0.0], [249.3800110479798, 0.0], [251.30389835858585, 0.0], [251.52529198232324, 0.0], [251.6886442550505, 0.0], [251.9843355429293, 0.0], [252.34528882575756, 0.0], [252.290680239899, 0.0], [251.78657670454547, 0.0], [251.7957702020202, 0.0], [250.6260258838384, 0.0], [249.43430397727272, 0.0], [249.40388257575756, 0.0], [249.68386994949495, 0.0], [249.87969539141415, 0.0], [250.22435290404042, 0.0], [250.25607638888889, 0.0], [250.52205650252526, 0.0], [250.8901515151515, 0.0], [251.00082859848484, 0.0], [251.22747001262627, 0.0], [251.39831912878788, 0.0], [251.65747316919192, 0.0], [251.80926452020202, 0.0], [251.3246922348485, 0.0], [249.7896543560606, 0.0], [247.85452178030303, 0.0], [248.0882654671717, 0.0], [249.52272727272728, 0.0], [251.45174400252526, 0.0], [251.7025726010101, 0.0], [251.75122316919192, 0.0], [252.00019728535352, 0.0], [252.2674005681818, 0.0], [252.24617266414143, 0.0], [251.8427241161616, 0.0], [251.91500946969697, 0.0], [251.05875157828282, 0.0], [249.8387389520202, 0.0], [249.697601010101, 0.0], [249.91544349747474, 0.0], [250.130523989899, 0.0], [250.52122790404042, 0.0], [250.63024779040404, 0.0], [250.67250631313132, 0.0], [250.88529829545453, 0.0], [250.97222222222223, 0.0], [251.3042140151515, 0.0], [251.57129892676767, 0.0], [251.7919034090909, 0.0], [251.8292297979798, 0.0], [250.65636837121212, 0.0], [249.38139204545453, 0.0], [247.91055082070707, 0.0], [248.1416903409091, 0.0], [248.94775883838383, 0.0], [250.25631313131314, 0.0], [250.4062105429293, 0.0], [250.48705808080808, 0.0], [250.65550031565655, 0.0], [250.95714962121212, 0.0], [251.20020517676767, 0.0], [251.4888731060606, 0.0], [251.67305871212122, 0.0], [251.7052556818182, 0.0], [250.43067392676767, 0.0], [249.40660511363637, 0.0], [249.37361900252526, 0.0], [249.46673768939394, 0.0], [249.63821811868686, 0.0], [249.9677241161616, 0.0], [250.0752840909091, 0.0], [250.22115688131314, 0.0], [250.4481928661616, 0.0], [250.64693813131314, 0.0], [251.0317234848485, 0.0], [251.12507891414143, 0.0], [251.40198863636363, 0.0], [251.44077493686868, 0.0], [250.63257575757575, 0.0], [249.29225852272728, 0.0], [249.08858112373738, 0.0], [249.21681660353536, 0.0], [249.41654829545453, 0.0], [249.60416666666666, 0.0], [249.7177241161616, 0.0], [249.78267045454547, 0.0], [250.0095880681818, 0.0], [250.18757891414143, 0.0], [250.52829071969697, 0.0], [250.78274936868686, 0.0], [250.920257260101, 0.0], [251.03701073232324, 0.0], [250.9705255681818, 0.0], [249.78874684343435, 0.0], [248.76649305555554, 0.0], [248.8231139520202, 0.0], [249.0625, 0.0], [249.26534880050505, 0.0], [249.54517834595958, 0.0], [249.62618371212122, 0.0], [249.73792613636363, 0.0], [249.94053819444446, 0.0], [250.3109217171717, 0.0], [250.54553345959596, 0.0], [250.8163667929293, 0.0], [250.9184422348485, 0.0], [251.0853851010101, 0.0], [250.34367108585857, 0.0], [249.00686553030303, 0.0], [248.86679292929293, 0.0], [249.0524384469697, 0.0], [249.14831912878788, 0.0], [249.49439709595958, 0.0], [249.54991319444446, 0.0], [249.6192787247475, 0.0], [249.82773042929293, 0.0], [250.18169981060606, 0.0], [250.49033301767676, 0.0], [250.6596827651515, 0.0], [250.83451704545453, 0.0], [250.9983428030303, 0.0], [250.7286537247475, 0.0], [249.31178977272728, 0.0], [248.70663667929293, 0.0], [248.8203519570707, 0.0], [248.90013415404042, 0.0], [249.17045454545453, 0.0], [249.45789930555554, 0.0], [249.63577178030303, 0.0], [249.79592803030303, 0.0], [250.03633996212122, 0.0], [250.29983428030303, 0.0], [250.59911616161617, 0.0], [250.83420138888889, 0.0], [251.0557528409091, 0.0], [250.65214646464648, 0.0], [249.15297506313132, 0.0], [248.4776278409091, 0.0], [248.6261047979798, 0.0], [248.76834753787878, 0.0], [249.03495896464648, 0.0], [249.33357007575756, 0.0], [249.41946811868686, 0.0], [249.70138888888889, 0.0], [249.9614504419192, 0.0], [250.28416982323233, 0.0], [250.4921480429293, 0.0], [250.736663510101, 0.0], [250.8309264520202, 0.0], [250.87026515151516, 0.0], [249.92818813131314, 0.0], [248.2544586489899, 0.0], [247.91946811868686, 0.0], [248.5565025252525, 0.0], [249.63549558080808, 0.0], [249.92321654040404, 0.0], [250.0669981060606, 0.0], [250.21803977272728, 0.0], [250.52600220959596, 0.0], [250.771819760101, 0.0], [251.10179924242425, 0.0], [251.43899936868686, 0.0], [251.6361663510101, 0.0], [251.84635416666666, 0.0], [251.95142834595958, 0.0], [250.25011837121212, 0.0], [246.81175031565655, 0.0], [246.62847222222223, 0.0], [248.24419981060606, 0.0], [250.38186553030303, 0.0], [250.62409248737373, 0.0], [250.84118529040404, 0.0], [251.05512152777777, 0.0], [251.3727509469697, 0.0], [251.69270833333334, 0.0], [251.98236268939394, 0.0], [252.06632733585857, 0.0], [251.88608743686868, 0.0], [249.7946259469697, 0.0], [248.7325994318182, 0.0], [248.779632260101, 0.0], [249.1914457070707, 0.0], [249.29671717171718, 0.0], [249.4408143939394, 0.0], [249.63095801767676, 0.0], [249.90064709595958, 0.0], [250.13525883838383, 0.0], [250.51590119949495, 0.0], [250.86264993686868, 0.0], [251.20430871212122, 0.0], [251.3693181818182, 0.0], [251.53428819444446, 0.0], [251.4319365530303, 0.0], [250.08293876262627, 0.0], [249.05093907828282, 0.0], [249.02742266414143, 0.0], [249.20793876262627, 0.0], [249.28365688131314, 0.0], [249.38415404040404, 0.0], [249.63190498737373, 0.0], [249.73749210858585, 0.0], [249.87855113636363, 0.0], [250.2086095328283, 0.0], [250.48409880050505, 0.0], [250.69558869949495, 0.0], [250.89926609848484, 0.0], [250.92447916666666, 0.0], [249.91370738636363, 0.0], [248.68899936868686, 0.0], [248.60503472222223, 0.0], [248.69515467171718, 0.0], [248.79659880050505, 0.0], [249.15897253787878, 0.0], [249.41532512626262, 0.0], [249.56277619949495, 0.0], [249.7025331439394, 0.0], [250.0921717171717, 0.0], [250.21504103535352, 0.0], [250.5138494318182, 0.0], [250.70221748737373, 0.0], [250.7628235479798, 0.0], [249.93935448232324, 0.0], [248.50919349747474, 0.0], [248.28132891414143, 0.0], [248.42507102272728, 0.0], [249.263336489899, 0.0], [250.37653882575756, 0.0], [250.56577493686868, 0.0], [250.73019255050505, 0.0], [250.9833096590909, 0.0], [251.3626893939394, 0.0], [251.64299242424244, 0.0], [251.8041745580808, 0.0], [251.86205808080808, 0.0], [250.1182133838384, 0.0], [247.3536537247475, 0.0], [247.5262389520202, 0.0], [249.18390940656565, 0.0], [251.64749053030303, 0.0], [251.70888573232324, 0.0], [251.76779513888889, 0.0], [251.22387941919192, 0.0], [251.5211884469697, 0.0], [251.73125789141415, 0.0], [251.9430634469697, 0.0], [251.8577178030303, 0.0], [249.9871764520202, 0.0], [248.27122790404042, 0.0], [248.69965277777777, 0.0], [248.82851957070707, 0.0], [249.10681029040404, 0.0], [249.31395991161617, 0.0], [249.3715672348485, 0.0], [249.41642992424244, 0.0], [249.6211332070707, 0.0], [249.7812105429293, 0.0], [250.2127525252525, 0.0], [250.3989109848485, 0.0], [250.62464488636363, 0.0], [250.7276672979798, 0.0], [250.24704071969697, 0.0], [248.7505918560606, 0.0], [248.3900726010101, 0.0], [248.8303740530303, 0.0], [249.7064788510101, 0.0], [250.62973484848484, 0.0], [250.69184027777777, 0.0], [250.84359217171718, 0.0], [250.93607954545453, 0.0], [251.0430082070707, 0.0], [251.3689630681818, 0.0], [251.50078914141415, 0.0], [251.78720801767676, 0.0], [251.91524621212122, 0.0], [252.0000394570707, 0.0], [251.39658301767676, 0.0], [248.892913510101, 0.0], [246.44180082070707, 0.0], [246.59745896464648, 0.0], [247.56100063131314, 0.0], [248.92309816919192, 0.0], [249.10243055555554, 0.0], [249.14772727272728, 0.0], [249.23926767676767, 0.0], [249.623382260101, 0.0], [249.7611663510101, 0.0], [250.19594381313132, 0.0], [250.41232638888889, 0.0], [250.67479482323233, 0.0], [250.46121369949495, 0.0], [249.11138731060606, 0.0], [248.11343907828282, 0.0], [248.15668402777777, 0.0], [248.3927162247475, 0.0], [249.0413115530303, 0.0], [250.15494791666666, 0.0], [250.3003077651515, 0.0], [250.4497316919192, 0.0], [250.6830808080808, 0.0], [250.9793244949495, 0.0], [251.33637152777777, 0.0], [251.57694128787878, 0.0], [251.80445075757575, 0.0], [252.10752051767676, 0.0], [252.10929608585857, 0.0], [251.07788825757575, 0.0], [248.95071811868686, 0.0], [246.86939709595958, 0.0], [247.0312894570707, 0.0], [247.93951231060606, 0.0], [249.28866792929293, 0.0], [249.33128156565655, 0.0], [249.4681976010101, 0.0], [249.66721906565655, 0.0], [250.00217013888889, 0.0], [250.2416351010101, 0.0], [250.58471433080808, 0.0], [250.7588383838384, 0.0], [250.88652146464648, 0.0], [251.19278724747474, 0.0], [250.58964646464648, 0.0], [249.04995265151516, 0.0]]
[[247.90755208333334, 0.0], [248.3292297979798, 0.0], [248.50998263888889, 0.0], [248.62038352272728, 0.0], [248.67589962121212, 0.0], [248.83984375, 0.0], [249.08211016414143, 0.0], [249.44898200757575, 0.0], [249.79549400252526, 0.0], [250.0730744949495, 0.0], [250.28969381313132, 0.0], [250.025726010101, 0.0], [248.4519807449495, 0.0], [247.52252998737373, 0.0], [247.71101641414143, 0.0], [248.4541508838384, 0.0], [249.50489267676767, 0.0], [249.5870028409091, 0.0], [249.7283775252525, 0.0], [249.84284248737373, 0.0], [250.07023358585857, 0.0], [250.3404356060606, 0.0], [250.60854640151516, 0.0], [250.95947758838383, 0.0], [251.06269728535352, 0.0], [250.92988478535352, 0.0], [249.55011047979798, 0.0], [248.85570549242425, 0.0], [248.90044981060606, 0.0], [249.01092960858585, 0.0], [249.1422821969697, 0.0], [249.56952335858585, 0.0], [249.67317708333334, 0.0], [249.9229403409091, 0.0], [250.12768308080808, 0.0], [250.52099116161617, 0.0], [250.7833412247475, 0.0], [251.12357954545453, 0.0], [251.25130208333334, 0.0], [251.37748579545453, 0.0], [250.3466303661616, 0.0], [249.0903961489899, 0.0], [249.00019728535352, 0.0], [249.1032196969697, 0.0], [249.29166666666666, 0.0], [249.65557922979798, 0.0], [249.8382654671717, 0.0], [249.90530303030303, 0.0], [250.1622869318182, 0.0], [250.48907039141415, 0.0], [250.86600378787878, 0.0], [251.09244791666666, 0.0], [251.35633680555554, 0.0], [251.51444128787878, 0.0], [251.41670612373738, 0.0], [250.0645912247475, 0.0], [249.07729640151516, 0.0], [249.11971275252526, 0.0], [249.33510890151516, 0.0], [249.4804292929293, 0.0], [249.7767518939394, 0.0], [249.96657986111111, 0.0], [250.02537089646464, 0.0], [250.24782986111111, 0.0], [250.587555239899, 0.0], [250.92980587121212, 0.0], [251.12859059343435, 0.0], [251.48690025252526, 0.0], [251.72419507575756, 0.0], [251.81609059343435, 0.0], [250.74708017676767, 0.0], [249.5233980429293, 0.0], [249.4034090909091, 0.0], [249.61564867424244, 0.0], [249.7895754419192, 0.0], [250.02907986111111, 0.0], [250.12630208333334, 0.0], [250.14382102272728, 0.0], [250.27690972222223, 0.0], [250.66536458333334, 0.0], [250.8961884469697, 0.0], [251.20557133838383, 0.0], [251.46859217171718, 0.0], [251.72675978535352, 0.0], [251.73409880050505, 0.0], [250.9370265151515, 0.0], [249.4502446338384, 0.0], [249.22435290404042, 0.0], [249.35523200757575, 0.0], [249.5629734848485, 0.0], [249.72285353535352, 0.0], [249.8654119318182, 0.0], [249.85168087121212, 0.0], [249.88521938131314, 0.0], [250.03144728535352, 0.0], [250.4274384469697, 0.0], [250.63076073232324, 0.0], [250.86675347222223, 0.0], [251.1110321969697, 0.0], [250.89307133838383, 0.0], [249.45924084595958, 0.0], [248.6249605429293, 0.0], [248.70320391414143, 0.0], [248.92783301767676, 0.0], [249.07453440656565, 0.0], [249.4915956439394, 0.0], [249.7042297979798, 0.0], [249.90155460858585, 0.0], [250.15321180555554, 0.0], [250.50426136363637, 0.0], [250.8559816919192, 0.0], [251.18828914141415, 0.0], [251.41781092171718, 0.0], [251.63024779040404, 0.0], [251.36647727272728, 0.0], [249.85677083333334, 0.0], [248.97829861111111, 0.0], [249.07836174242425, 0.0], [249.36801609848484, 0.0], [249.57682291666666, 0.0], [249.90873579545453, 0.0], [250.07169349747474, 0.0], [250.2008759469697, 0.0], [250.44345801767676, 0.0], [250.81376262626262, 0.0], [251.1411379419192, 0.0], [251.38940183080808, 0.0], [251.52864583333334, 0.0], [251.5888178661616, 0.0], [250.3158143939394, 0.0], [246.60787563131314, 0.0], [245.85866477272728, 0.0], [247.50564236111111, 0.0], [249.8187342171717, 0.0], [249.93659248737373, 0.0], [250.25217013888889, 0.0], [250.3185369318182, 0.0], [250.39812184343435, 0.0], [250.69985006313132, 0.0], [251.02252998737373, 0.0], [251.23007417929293, 0.0], [251.53922032828282, 0.0], [251.64820075757575, 0.0], [251.83562184343435, 0.0], [250.77324021464648, 0.0], [248.0167692550505, 0.0], [247.9180082070707, 0.0], [249.51945233585857, 0.0], [251.4937657828283, 0.0], [251.7020596590909, 0.0], [251.79943970959596, 0.0], [251.9810606060606, 0.0], [252.31368371212122, 0.0], [252.37878787878788, 0.0], [252.14157196969697, 0.0], [252.20501893939394, 0.0], [251.98697916666666, 0.0], [249.33506944444446, 0.0], [248.18493529040404, 0.0], [248.1747553661616, 0.0], [248.34678819444446, 0.0], [248.64551767676767, 0.0], [248.90561868686868, 0.0], [248.99743529040404, 0.0], [249.26605902777777, 0.0], [249.4436553030303, 0.0], [249.80007102272728, 0.0], [250.09221117424244, 0.0], [250.40561868686868, 0.0], [250.59122474747474, 0.0], [250.28839172979798, 0.0], [248.57323232323233, 0.0], [247.7918244949495, 0.0], [247.9190735479798, 0.0], [248.82445549242425, 0.0], [250.0145991161616, 0.0], [250.27193813131314, 0.0], [250.43600063131314, 0.0], [250.51878156565655, 0.0], [250.76964962121212, 0.0], [251.0741792929293, 0.0], [251.3270202020202, 0.0], [251.66646938131314, 0.0], [251.84248737373738, 0.0], [251.79644097222223, 0.0], [250.4174163510101, 0.0], [249.1885258838384, 0.0], [247.66895517676767, 0.0], [247.8499053030303, 0.0], [249.3800110479798, 0.0], [251.30389835858585, 0.0], [251.52529198232324, 0.0], [251.6886442550505, 0.0], [251.9843355429293, 0.0], [252.34528882575756, 0.0], [252.290680239899, 0.0], [251.78657670454547, 0.0], [251.7957702020202, 0.0], [250.6260258838384, 0.0], [249.43430397727272, 0.0], [249.40388257575756, 0.0], [249.68386994949495, 0.0], [249.87969539141415, 0.0], [250.22435290404042, 0.0], [250.25607638888889, 0.0], [250.52205650252526, 0.0], [250.8901515151515, 0.0], [251.00082859848484, 0.0], [251.22747001262627, 0.0], [251.39831912878788, 0.0], [251.65747316919192, 0.0], [251.80926452020202, 0.0], [251.3246922348485, 0.0], [249.7896543560606, 0.0], [247.85452178030303, 0.0], [248.0882654671717, 0.0], [249.52272727272728, 0.0], [251.45174400252526, 0.0], [251.7025726010101, 0.0], [251.75122316919192, 0.0], [252.00019728535352, 0.0], [252.2674005681818, 0.0], [252.24617266414143, 0.0], [251.8427241161616, 0.0], [251.91500946969697, 0.0], [251.05875157828282, 0.0], [249.8387389520202, 0.0], [249.697601010101, 0.0], [249.91544349747474, 0.0], [250.130523989899, 0.0], [250.52122790404042, 0.0], [250.63024779040404, 0.0], [250.67250631313132, 0.0], [250.88529829545453, 0.0], [250.97222222222223, 0.0], [251.3042140151515, 0.0], [251.57129892676767, 0.0], [251.7919034090909, 0.0], [251.8292297979798, 0.0], [250.65636837121212, 0.0], [249.38139204545453, 0.0], [247.91055082070707, 0.0], [248.1416903409091, 0.0], [248.94775883838383, 0.0], [250.25631313131314, 0.0], [250.4062105429293, 0.0], [250.48705808080808, 0.0], [250.65550031565655, 0.0], [250.95714962121212, 0.0], [251.20020517676767, 0.0], [251.4888731060606, 0.0], [251.67305871212122, 0.0], [251.7052556818182, 0.0], [250.43067392676767, 0.0], [249.40660511363637, 0.0], [249.37361900252526, 0.0], [249.46673768939394, 0.0], [249.63821811868686, 0.0], [249.9677241161616, 0.0], [250.0752840909091, 0.0], [250.22115688131314, 0.0], [250.4481928661616, 0.0], [250.64693813131314, 0.0], [251.0317234848485, 0.0], [251.12507891414143, 0.0], [251.40198863636363, 0.0], [251.44077493686868, 0.0], [250.63257575757575, 0.0], [249.29225852272728, 0.0], [249.08858112373738, 0.0], [249.21681660353536, 0.0], [249.41654829545453, 0.0], [249.60416666666666, 0.0], [249.7177241161616, 0.0], [249.78267045454547, 0.0], [250.0095880681818, 0.0], [250.18757891414143, 0.0], [250.52829071969697, 0.0], [250.78274936868686, 0.0], [250.920257260101, 0.0], [251.03701073232324, 0.0], [250.9705255681818, 0.0], [249.78874684343435, 0.0], [248.76649305555554, 0.0], [248.8231139520202, 0.0], [249.0625, 0.0], [249.26534880050505, 0.0], [249.54517834595958, 0.0], [249.62618371212122, 0.0], [249.73792613636363, 0.0], [249.94053819444446, 0.0], [250.3109217171717, 0.0], [250.54553345959596, 0.0], [250.8163667929293, 0.0], [250.9184422348485, 0.0], [251.0853851010101, 0.0], [250.34367108585857, 0.0], [249.00686553030303, 0.0], [248.86679292929293, 0.0], [249.0524384469697, 0.0], [249.14831912878788, 0.0], [249.49439709595958, 0.0], [249.54991319444446, 0.0], [249.6192787247475, 0.0], [249.82773042929293, 0.0], [250.18169981060606, 0.0], [250.49033301767676, 0.0], [250.6596827651515, 0.0], [250.83451704545453, 0.0], [250.9983428030303, 0.0], [250.7286537247475, 0.0], [249.31178977272728, 0.0], [248.70663667929293, 0.0], [248.8203519570707, 0.0], [248.90013415404042, 0.0], [249.17045454545453, 0.0], [249.45789930555554, 0.0], [249.63577178030303, 0.0], [249.79592803030303, 0.0], [250.03633996212122, 0.0], [250.29983428030303, 0.0], [250.59911616161617, 0.0], [250.83420138888889, 0.0], [251.0557528409091, 0.0], [250.65214646464648, 0.0], [249.15297506313132, 0.0], [248.4776278409091, 0.0], [248.6261047979798, 0.0], [248.76834753787878, 0.0], [249.03495896464648, 0.0], [249.33357007575756, 0.0], [249.41946811868686, 0.0], [249.70138888888889, 0.0], [249.9614504419192, 0.0], [250.28416982323233, 0.0], [250.4921480429293, 0.0], [250.736663510101, 0.0], [250.8309264520202, 0.0], [250.87026515151516, 0.0], [249.92818813131314, 0.0], [248.2544586489899, 0.0], [247.91946811868686, 0.0], [248.5565025252525, 0.0], [249.63549558080808, 0.0], [249.92321654040404, 0.0], [250.0669981060606, 0.0], [250.21803977272728, 0.0], [250.52600220959596, 0.0], [250.771819760101, 0.0], [251.10179924242425, 0.0], [251.43899936868686, 0.0], [251.6361663510101, 0.0], [251.84635416666666, 0.0], [251.95142834595958, 0.0], [250.25011837121212, 0.0], [246.81175031565655, 0.0], [246.62847222222223, 0.0], [248.24419981060606, 0.0], [250.38186553030303, 0.0], [250.62409248737373, 0.0], [250.84118529040404, 0.0], [251.05512152777777, 0.0], [251.3727509469697, 0.0], [251.69270833333334, 0.0], [251.98236268939394, 0.0], [252.06632733585857, 0.0], [251.88608743686868, 0.0], [249.7946259469697, 0.0], [248.7325994318182, 0.0], [248.779632260101, 0.0], [249.1914457070707, 0.0], [249.29671717171718, 0.0], [249.4408143939394, 0.0], [249.63095801767676, 0.0], [249.90064709595958, 0.0], [250.13525883838383, 0.0], [250.51590119949495, 0.0], [250.86264993686868, 0.0], [251.20430871212122, 0.0], [251.3693181818182, 0.0], [251.53428819444446, 0.0], [251.4319365530303, 0.0], [250.08293876262627, 0.0], [249.05093907828282, 0.0], [249.02742266414143, 0.0], [249.20793876262627, 0.0], [249.28365688131314, 0.0], [249.38415404040404, 0.0], [249.63190498737373, 0.0], [249.73749210858585, 0.0], [249.87855113636363, 0.0], [250.2086095328283, 0.0], [250.48409880050505, 0.0], [250.69558869949495, 0.0], [250.89926609848484, 0.0], [250.92447916666666, 0.0], [249.91370738636363, 0.0], [248.68899936868686, 0.0], [248.60503472222223, 0.0], [248.69515467171718, 0.0], [248.79659880050505, 0.0], [249.15897253787878, 0.0], [249.41532512626262, 0.0], [249.56277619949495, 0.0], [249.7025331439394, 0.0], [250.0921717171717, 0.0], [250.21504103535352, 0.0], [250.5138494318182, 0.0], [250.70221748737373, 0.0], [250.7628235479798, 0.0], [249.93935448232324, 0.0], [248.50919349747474, 0.0], [248.28132891414143, 0.0], [248.42507102272728, 0.0], [249.263336489899, 0.0], [250.37653882575756, 0.0], [250.56577493686868, 0.0], [250.73019255050505, 0.0], [250.9833096590909, 0.0], [251.3626893939394, 0.0], [251.64299242424244, 0.0], [251.8041745580808, 0.0], [251.86205808080808, 0.0], [250.1182133838384, 0.0], [247.3536537247475, 0.0], [247.5262389520202, 0.0], [249.18390940656565, 0.0], [251.64749053030303, 0.0], [251.70888573232324, 0.0], [251.76779513888889, 0.0], [251.22387941919192, 0.0], [251.5211884469697, 0.0], [251.73125789141415, 0.0], [251.9430634469697, 0.0], [251.8577178030303, 0.0], [249.9871764520202, 0.0], [248.27122790404042, 0.0], [248.69965277777777, 0.0], [248.82851957070707, 0.0], [249.10681029040404, 0.0], [249.31395991161617, 0.0], [249.3715672348485, 0.0], [249.41642992424244, 0.0], [249.6211332070707, 0.0], [249.7812105429293, 0.0], [250.2127525252525, 0.0], [250.3989109848485, 0.0], [250.62464488636363, 0.0], [250.7276672979798, 0.0], [250.24704071969697, 0.0], [248.7505918560606, 0.0], [248.3900726010101, 0.0], [248.8303740530303, 0.0], [249.7064788510101, 0.0], [250.62973484848484, 0.0], [250.69184027777777, 0.0], [250.84359217171718, 0.0], [250.93607954545453, 0.0], [251.0430082070707, 0.0], [251.3689630681818, 0.0], [251.50078914141415, 0.0], [251.78720801767676, 0.0], [251.91524621212122, 0.0], [252.0000394570707, 0.0], [251.39658301767676, 0.0], [248.892913510101, 0.0], [246.44180082070707, 0.0], [246.59745896464648, 0.0], [247.56100063131314, 0.0], [248.92309816919192, 0.0], [249.10243055555554, 0.0], [249.14772727272728, 0.0], [249.23926767676767, 0.0], [249.623382260101, 0.0], [249.7611663510101, 0.0], [250.19594381313132, 0.0], [250.41232638888889, 0.0], [250.67479482323233, 0.0], [250.46121369949495, 0.0], [249.11138731060606, 0.0], [248.11343907828282, 0.0], [248.15668402777777, 0.0], [248.3927162247475, 0.0], [249.0413115530303, 0.0], [250.15494791666666, 0.0], [250.3003077651515, 0.0], [250.4497316919192, 0.0], [250.6830808080808, 0.0], [250.9793244949495, 0.0], [251.33637152777777, 0.0], [251.57694128787878, 0.0], [251.80445075757575, 0.0], [252.10752051767676, 0.0], [252.10929608585857, 0.0], [251.07788825757575, 0.0], [248.95071811868686, 0.0], [246.86939709595958, 0.0], [247.0312894570707, 0.0], [247.93951231060606, 0.0], [249.28866792929293, 0.0], [249.33128156565655, 0.0], [249.4681976010101, 0.0], [249.66721906565655, 0.0], [250.00217013888889, 0.0], [250.2416351010101, 0.0], [250.58471433080808, 0.0], [250.7588383838384, 0.0], [250.88652146464648, 0.0], [251.19278724747474, 0.0], [250.58964646464648, 0.0], [249.04995265151516, 0.0], [248.71638257575756, 0.0]]
